Vernier Format 2
Untitled.cmbl 10/21/2020 15:15:05 .
Latest
Time	Potential 1	EKG	Potential 2
t	Pot 1	EKG	Pot 2
s	mV	mV	V

0	-0.204559326172	 	4.22470092773
0.005	-0.230117797852	 	4.22828674316
0.01	-0.27864074707	 	4.22950744629
0.015	-0.333343505859	 	4.23072814941
0.02	-0.329681396484	 	4.23316955566
0.025	-0.198532104492	 	4.23316955566
0.03	-0.0163421630859	 	4.23194885254
0.035	0.364974975586	 	4.22828674316
0.04	0.87141418457	 	4.22470092773
0.045	0.947937011719	 	4.22828674316
0.05	0.66130065918	 	4.23316955566
0.055	0.286087036133	 	4.23194885254
0.06	-0.0916442871094	 	4.23805236816
0.065	-0.239807128906	 	4.24163818359
0.07	-0.251937866211	 	4.24285888672
0.075	-0.239807128906	 	4.24285888672
0.08	-0.225234985352	 	4.24530029297
0.085	-0.228897094727	 	4.24652099609
0.09	-0.253158569336	 	4.24652099609
0.095	-0.247055053711	 	4.24774169922
0.1	-0.225234985352	 	4.25018310547
0.105	-0.219131469727	 	4.24896240234
0.11	-0.211883544922	 	4.24896240234
0.115	-0.183959960938	 	4.24896240234
0.12	-0.148712158203	 	4.25018310547
0.125	-0.130477905273	 	4.25018310547
0.13	-0.115905761719	 	4.25140380859
0.135	-0.0965270996094	 	4.25140380859
0.14	-0.0673828125	 	4.25262451172
0.145	-0.0515899658203	 	4.25262451172
0.15	-0.0284729003906	 	4.25506591797
0.155	-0.0321350097656	 	4.25384521484
0.16	-0.0345764160156	 	4.25506591797
0.165	-0.00787353515625	 	4.25506591797
0.17	0.0152435302734	 	4.25628662109
0.175	0.0589599609375	 	4.25628662109
0.18	0.0638427734375	 	4.25750732422
0.185	0.129379272461	 	4.25628662109
0.19	0.142730712891	 	4.25750732422
0.195	0.125717163086	 	4.25987243652
0.2	0.209564208984	 	4.2586517334
0.205	0.19499206543	 	4.26109313965
0.21	0.16340637207	 	4.26109313965
0.215	0.0917663574219	 	4.26231384277
0.22	0.120910644531	 	4.26231384277
0.225	0.131820678711	 	4.26475524902
0.23	0.146392822266	 	4.26597595215
0.235	0.150054931641	 	4.26719665527
0.24	0.124572753906	 	4.26597595215
0.245	0.0589599609375	 	4.26719665527
0.25	0.0528564453125	 	4.2684173584
0.255	-0.00901794433594	 	4.26963806152
0.26	-0.0151214599609	 	4.2684173584
0.265	0.0249328613281	 	4.2684173584
0.27	-0.0139007568359	 	4.27207946777
0.275	-0.0114593505859	 	4.27207946777
0.28	-0.0235900878906	 	4.27085876465
0.285	-0.0830993652344	 	4.2733001709
0.29	-0.0746307373047	 	4.2733001709
0.295	-0.0272521972656	 	4.2733001709
0.3	0.0152435302734	 	4.2733001709
0.305	-0.00901794433594	 	4.2756652832
0.31	-0.0467071533203	 	4.2756652832
0.315	-0.0102386474609	 	4.27444458008
0.32	0.0224914550781	 	4.27444458008
0.325	0.0322570800781	 	4.2756652832
0.33	0.0382843017578	 	4.27444458008
0.335	0.0528564453125	 	4.2756652832
0.34	0.0552978515625	 	4.2756652832
0.345	0.0844421386719	 	4.2756652832
0.35	0.0638427734375	 	4.27688598633
0.355	0.0285949707031	 	4.27932739258
0.36	0.117248535156	 	4.27932739258
0.365	0.145172119141	 	4.27932739258
0.37	0.114807128906	 	4.2805480957
0.375	0.0759735107422	 	4.28298950195
0.38	0.0917663574219	 	4.28176879883
0.385	0.106338500977	 	4.28421020508
0.39	0.137924194336	 	4.28421020508
0.395	0.0881042480469	 	4.28298950195
0.4	-0.0430450439453	 	4.28665161133
0.405	-0.145050048828	 	4.28909301758
0.41	-0.148712158203	 	4.29023742676
0.415	-0.164505004883	 	4.29023742676
0.42	-0.210662841797	 	4.29145812988
0.425	-0.216690063477	 	4.29267883301
0.43	-0.207000732422	 	4.29389953613
0.435	-0.199752807617	 	4.29512023926
0.44	-0.192428588867	 	4.29512023926
0.445	-0.185180664063	 	4.29512023926
0.45	-0.174194335938	 	4.29512023926
0.455	-0.181518554688	 	4.29512023926
0.46	-0.180297851563	 	4.29756164551
0.465	-0.211883544922	 	4.30122375488
0.47	-0.2919921875	 	4.30122375488
0.475	-0.28840637207	 	4.30000305176
0.48	-0.149932861328	 	4.30000305176
0.485	0.0747528076172	 	4.29878234863
0.49	0.446380615234	 	4.29634094238
0.495	0.917572021484	 	4.29267883301
0.5	1.14347839355	 	4.29267883301
0.505	0.921234130859	 	4.29389953613
0.51	0.491317749023	 	4.29634094238
0.515	0.107559204102	 	4.30603027344
0.52	-0.156036376953	 	4.30603027344
0.525	-0.230117797852	 	4.30603027344
0.53	-0.258041381836	 	4.30847167969
0.535	-0.224014282227	 	4.30847167969
0.54	-0.203338623047	 	4.30969238281
0.545	-0.237365722656	 	4.31213378906
0.55	-0.214324951172	 	4.31091308594
0.555	-0.216690063477	 	4.31091308594
0.56	-0.202117919922	 	4.31213378906
0.565	-0.149932861328	 	4.31213378906
0.57	-0.131698608398	 	4.31213378906
0.575	-0.126815795898	 	4.31213378906
0.58	-0.151153564453	 	4.31213378906
0.585	-0.0953063964844	 	4.30969238281
0.59	-0.061279296875	 	4.31213378906
0.595	-0.058837890625	 	4.31091308594
0.6	-0.0709686279297	 	4.30969238281
0.605	-0.0625	 	4.30969238281
0.61	0.00067138671875	 	4.31213378906
0.615	0.0249328613281	 	4.31335449219
0.62	0.0419464111328	 	4.31579589844
0.625	0.0201263427734	 	4.31579589844
0.63	0.0152435302734	 	4.31579589844
0.635	0.0212707519531	 	4.31579589844
0.64	0.0359191894531	 	4.31823730469
0.645	0.112365722656	 	4.31579589844
0.65	0.130599975586	 	4.31701660156
0.655	0.133041381836	 	4.31701660156
0.66	0.173095703125	 	4.31457519531
0.665	0.17431640625	 	4.31579589844
0.67	0.16096496582	 	4.31579589844
0.675	0.129379272461	 	4.31579589844
0.68	0.106338500977	 	4.31579589844
0.685	0.0723114013672	 	4.31823730469
0.69	0.0431671142578	 	4.32067871094
0.695	0.0359191894531	 	4.32067871094
0.7	0.00067138671875	 	4.31823730469
0.705	0.00669860839844	 	4.31823730469
0.71	0.0128021240234	 	4.31945800781
0.715	-0.00299072265625	 	4.31945800781
0.72	-0.0430450439453	 	4.32067871094
0.725	-0.061279296875	 	4.32067871094
0.73	-0.0321350097656	 	4.31945800781
0.735	-0.0272521972656	 	4.31945800781
0.74	-0.063720703125	 	4.31823730469
0.745	-0.0904235839844	 	4.31945800781
0.75	-0.0916442871094	 	4.32067871094
0.755	-0.0721893310547	 	4.32067871094
0.76	-0.0479278564453	 	4.32067871094
0.765	-0.0321350097656	 	4.31701660156
0.77	0.00433349609375	 	4.31823730469
0.775	0.0152435302734	 	4.31945800781
0.78	-0.00054931640625	 	4.31823730469
0.785	0.00311279296875	 	4.31579589844
0.79	-0.00054931640625	 	4.31579589844
0.795	0.00189208984375	 	4.31457519531
0.8	0.0249328613281	 	4.31457519531
0.805	0.0334777832031	 	4.31335449219
0.81	0.0359191894531	 	4.31457519531
0.815	0.0492706298828	 	4.31335449219
0.82	0.0747528076172	 	4.31335449219
0.825	0.100234985352	 	4.31091308594
0.83	0.0965728759766	 	4.30969238281
0.835	0.0662078857422	 	4.30969238281
0.84	0.0152435302734	 	4.30725097656
0.845	-0.0843200683594	 	4.30603027344
0.85	-0.131698608398	 	4.30603027344
0.855	-0.186325073242	 	4.30725097656
0.86	-0.230117797852	 	4.30603027344
0.865	-0.249496459961	 	4.30488586426
0.87	-0.262847900391	 	4.30244445801
0.875	-0.284744262695	 	4.30122375488
0.88	-0.2919921875	 	4.30122375488
0.885	-0.284744262695	 	4.30122375488
0.89	-0.253158569336	 	4.30244445801
0.895	-0.232482910156	 	4.30122375488
0.9	-0.227676391602	 	4.29878234863
0.905	-0.222793579102	 	4.29756164551
0.91	-0.236145019531	 	4.29634094238
0.915	-0.27619934082	 	4.29634094238
0.92	-0.328460693359	 	4.29634094238
0.925	-0.290771484375	 	4.29267883301
0.93	-0.175415039063	 	4.29023742676
0.935	0.00067138671875	 	4.28665161133
0.94	0.423263549805	 	4.2805480957
0.945	0.949157714844	 	4.2756652832
0.95	0.975860595703	 	4.2733001709
0.955	0.705017089844	 	4.2756652832
0.96	0.272735595703	 	4.27932739258
0.965	-0.0843200683594	 	4.2805480957
0.97	-0.214324951172	 	4.2805480957
0.975	-0.258041381836	 	4.2805480957
0.98	-0.258041381836	 	4.27932739258
0.985	-0.251937866211	 	4.2805480957
0.99	-0.249496459961	 	4.2756652832
0.995	-0.245834350586	 	4.2756652832
1	-0.245834350586	 	4.27688598633
1.005	-0.232482910156	 	4.27207946777
1.01	-0.220352172852	 	4.26719665527
1.015	-0.203338623047	 	4.26597595215
1.02	-0.207000732422	 	4.26597595215
1.025	-0.198532104492	 	4.2635345459
1.03	-0.175415039063	 	4.26231384277
1.035	-0.156036376953	 	4.25750732422
1.04	-0.125671386719	 	4.25506591797
1.045	-0.102554321289	 	4.25262451172
1.05	-0.106216430664	 	4.25140380859
1.055	-0.101333618164	 	4.25140380859
1.06	-0.101333618164	 	4.24774169922
1.065	-0.0879821777344	 	4.24652099609
1.07	-0.0430450439453	 	4.24407958984
1.075	0.00914001464844	 	4.24163818359
1.08	0.00791931152344	 	4.23927307129
1.085	0.00067138671875	 	4.23805236816
1.09	-0.00054931640625	 	4.23805236816
1.095	0.0346984863281	 	4.23561096191
1.1	0.0735321044922	 	4.23194885254
1.105	0.0735321044922	 	4.23072814941
1.11	0.0601806640625	 	4.22706604004
1.115	0.0540771484375	 	4.22348022461
1.12	0.0201263427734	 	4.22225952148
1.125	-0.0102386474609	 	4.22103881836
1.13	0.00791931152344	 	4.21859741211
1.135	0.0128021240234	 	4.21859741211
1.14	0.0140228271484	 	4.21371459961
1.145	-0.00665283203125	 	4.21127319336
1.15	-0.06494140625	 	4.20768737793
1.155	-0.100112915039	 	4.20524597168
1.16	-0.0976715087891	 	4.20524597168
1.165	-0.0830993652344	 	4.20402526855
1.17	-0.0916442871094	 	4.20036315918
1.175	-0.0807342529297	 	4.19425964355
1.18	-0.0879821777344	 	4.19311523438
1.185	-0.103775024414	 	4.19067382813
1.19	-0.0965270996094	 	4.18701171875
1.195	-0.0953063964844	 	4.1845703125
1.2	-0.101333618164	 	4.1796875
1.205	-0.114685058594	 	4.17846679688
1.21	-0.112243652344	 	4.17488098145
1.215	-0.0721893310547	 	4.16999816895
1.22	-0.0430450439453	 	4.1675567627
1.225	-0.05517578125	 	4.16511535645
1.23	-0.0393829345703	 	4.16152954102
1.235	-0.0260314941406	 	4.16030883789
1.24	-0.00299072265625	 	4.15908813477
1.245	0.0261535644531	 	4.15664672852
1.25	0.0273742675781	 	4.15420532227
1.255	0.0140228271484	 	4.15298461914
1.26	0.00311279296875	 	4.15176391602
1.265	-0.0212249755859	 	4.14932250977
1.27	-0.00787353515625	 	4.14688110352
1.275	0.0189056396484	 	4.14688110352
1.28	-0.00299072265625	 	4.14451599121
1.285	-0.0151214599609	 	4.14329528809
1.29	-0.0418243408203	 	4.13963317871
1.295	-0.102554321289	 	4.13963317871
1.3	-0.165725708008	 	4.13719177246
1.305	-0.227676391602	 	4.13597106934
1.31	-0.260406494141	 	4.13352966309
1.315	-0.290771484375	 	4.13352966309
1.32	-0.311447143555	 	4.13108825684
1.325	-0.311447143555	 	4.12994384766
1.33	-0.306564331055	 	4.12750244141
1.335	-0.29443359375	 	4.12628173828
1.34	-0.290771484375	 	4.12017822266
1.345	-0.28352355957	 	4.11895751953
1.35	-0.27864074707	 	4.11407470703
1.355	-0.259262084961	 	4.11170959473
1.36	-0.258041381836	 	4.1056060791
1.365	-0.27864074707	 	4.1056060791
1.37	-0.353942871094	 	4.10438537598
1.375	-0.383087158203	 	4.10316467285
1.38	-0.277420043945	 	4.09950256348
1.385	-0.058837890625	 	4.09225463867
1.39	0.391677856445	 	4.08981323242
1.395	0.996536254883	 	4.08248901367
1.4	1.3462677002	 	4.07768249512
1.405	1.07420349121	 	4.07646179199
1.41	0.549606323242	 	4.07890319824
1.415	-0.00901794433594	 	4.08134460449
1.42	-0.194869995117	 	4.08012390137
1.425	-0.247055053711	 	4.08012390137
1.43	-0.274978637695	 	4.08012390137
1.435	-0.28596496582	 	4.07768249512
1.44	-0.284744262695	 	4.07524108887
1.445	-0.27619934082	 	4.07524108887
1.45	-0.27864074707	 	4.07279968262
1.455	-0.270172119141	 	4.07157897949
1.46	-0.253158569336	 	4.06669616699
1.465	-0.236145019531	 	4.06555175781
1.47	-0.224014282227	 	4.06311035156
1.475	-0.188766479492	 	4.05944824219
1.48	-0.162063598633	 	4.05456542969
1.485	-0.136581420898	 	4.04853820801
1.49	-0.109878540039	 	4.04853820801
1.495	-0.0819549560547	 	4.04609680176
1.5	-0.0721893310547	 	4.04365539551
1.505	-0.0491485595703	 	4.04243469238
1.51	-0.0272521972656	 	4.04243469238
1.515	-0.0200042724609	 	4.04243469238
1.52	0.00189208984375	 	4.04121398926
1.525	0.0443878173828	 	4.04121398926
1.53	0.0807800292969	 	4.04243469238
1.535	0.0990142822266	 	4.03999328613
1.54	0.140289306641	 	4.04121398926
1.545	0.1767578125	 	4.04121398926
1.55	0.180419921875	 	4.03877258301
1.555	0.218032836914	 	4.03755187988
1.56	0.230163574219	 	4.03877258301
1.565	0.228942871094	 	4.03877258301
1.57	0.219253540039	 	4.03755187988
1.575	0.16943359375	 	4.03396606445
1.58	0.141510009766	 	4.03274536133
1.585	0.141510009766	 	4.0315246582
1.59	0.111145019531	 	4.0315246582
1.595	0.0807800292969	 	4.02908325195
1.6	0.0552978515625	 	4.02786254883
1.605	0.0540771484375	 	4.02786254883
1.61	0.0443878173828	 	4.02420043945
1.615	0.0382843017578	 	4.01931762695
1.62	0.0492706298828	 	4.01817321777
1.625	0.0565185546875	 	4.01817321777
1.63	0.0686492919922	 	4.0145111084
1.635	0.0589599609375	 	4.0145111084
1.64	0.0249328613281	 	4.0145111084
1.645	0.0115814208984	 	4.01206970215
1.65	0.0140228271484	 	4.0096282959
1.655	0.0201263427734	 	4.0096282959
1.66	0.0334777832031	 	4.00840759277
1.665	0.0249328613281	 	4.00718688965
1.67	0.00067138671875	 	4.00718688965
1.675	-0.00054931640625	 	4.0047454834
1.68	-0.0187835693359	 	4.00596618652
1.685	-0.0284729003906	 	4.00718688965
1.69	-0.0187835693359	 	4.00596618652
1.695	0.0103607177734	 	4.0047454834
1.7	0.0443878173828	 	4.00596618652
1.705	0.0552978515625	 	4.00352478027
1.71	0.0686492919922	 	4.0047454834
1.715	0.106338500977	 	4.0047454834
1.72	0.119689941406	 	4.00352478027
1.725	0.107559204102	 	4.00238037109
1.73	0.0977935791016	 	4.00238037109
1.735	0.120910644531	 	4.00352478027
1.74	0.142730712891	 	4.00352478027
1.745	0.16828918457	 	4.00238037109
1.75	0.151275634766	 	4.00352478027
1.755	0.136703491211	 	4.00352478027
1.76	0.113586425781	 	4.00352478027
1.765	0.0710906982422	 	4.00352478027
1.77	-0.00054931640625	 	4.00352478027
1.775	-0.0976715087891	 	4.00352478027
1.78	-0.157180786133	 	4.0047454834
1.785	-0.185180664063	 	4.00352478027
1.79	-0.219131469727	 	4.00352478027
1.795	-0.227676391602	 	4.00596618652
1.8	-0.210662841797	 	4.00596618652
1.805	-0.193649291992	 	4.0047454834
1.81	-0.194869995117	 	4.0047454834
1.815	-0.180297851563	 	4.00352478027
1.82	-0.165725708008	 	4.00352478027
1.825	-0.156036376953	 	4.00352478027
1.83	-0.151153564453	 	4.0047454834
1.835	-0.191207885742	 	4.0047454834
1.84	-0.268951416016	 	4.00352478027
1.845	-0.264068603516	 	4.00352478027
1.85	-0.168167114258	 	4.00115966797
1.855	0.0832214355469	 	3.99993896484
1.86	0.531372070313	 	3.99871826172
1.865	1.06451416016	 	3.99383544922
1.87	1.32322692871	 	3.99139404297
1.875	1.00744628906	 	3.99383544922
1.88	0.514358520508	 	3.99749755859
1.885	-0.00787353515625	 	4.00115966797
1.89	-0.207000732422	 	4.00238037109
1.895	-0.222793579102	 	4.00352478027
1.9	-0.208221435547	 	4.00238037109
1.905	-0.220352172852	 	4.00115966797
1.91	-0.238586425781	 	3.99993896484
1.915	-0.227676391602	 	4.00115966797
1.92	-0.217910766602	 	3.99993896484
1.925	-0.194869995117	 	3.99993896484
1.93	-0.162063598633	 	3.99871826172
1.935	-0.145050048828	 	3.99871826172
1.94	-0.141464233398	 	3.99505615234
1.945	-0.136581420898	 	3.99627685547
1.95	-0.101333618164	 	3.99749755859
1.955	-0.066162109375	 	3.99627685547
1.96	-0.0345764160156	 	3.99627685547
1.965	-0.0187835693359	 	3.99505615234
1.97	-0.0151214599609	 	3.99383544922
1.975	-0.0200042724609	 	3.99505615234
1.98	-0.00421142578125	 	3.99505615234
1.985	0.0359191894531	 	3.99505615234
1.99	0.0638427734375	 	3.99505615234
1.995	0.100234985352	 	3.99505615234
2	0.131820678711	 	3.99505615234
2.005	0.164627075195	 	3.99505615234
2.01	0.19743347168	 	3.99505615234
2.015	0.247177124023	 	3.99383544922
2.02	0.278762817383	 	3.99505615234
2.025	0.261749267578	 	3.99505615234
2.03	0.233825683594	 	3.99505615234
2.035	0.224136352539	 	3.99505615234
2.04	0.204681396484	 	3.99627685547
2.045	0.219253540039	 	3.99749755859
2.05	0.227798461914	 	3.99627685547
2.055	0.199798583984	 	3.99627685547
2.06	0.146392822266	 	3.99749755859
2.065	0.0868835449219	 	3.99749755859
2.07	0.0431671142578	 	3.99871826172
2.075	0.0273742675781	 	3.99871826172
2.08	0.0237121582031	 	3.99871826172
2.085	0.0103607177734	 	3.99871826172
2.09	-0.00054931640625	 	3.99871826172
2.095	-0.00901794433594	 	3.99871826172
2.1	-0.0163421630859	 	3.99993896484
2.105	-0.00299072265625	 	3.99993896484
2.11	0.0164642333984	 	3.99871826172
2.115	0.0115814208984	 	3.99871826172
2.12	0.00433349609375	 	3.99993896484
2.125	-0.00054931640625	 	3.99993896484
2.13	-0.0187835693359	 	3.99993896484
2.135	-0.0454864501953	 	4.00238037109
2.14	-0.06494140625	 	4.00238037109
2.145	-0.0685272216797	 	4.00238037109
2.15	-0.0697479248047	 	4.00352478027
2.155	-0.0625	 	4.00352478027
2.16	-0.0576171875	 	4.0047454834
2.165	-0.0235900878906	 	4.0047454834
2.17	-0.0102386474609	 	4.00352478027
2.175	0.00311279296875	 	4.00352478027
2.18	0.0468292236328	 	4.0047454834
2.185	0.0784149169922	 	4.0047454834
2.19	0.0528564453125	 	4.0047454834
2.195	0.0589599609375	 	4.00596618652
2.2	0.0540771484375	 	4.00596618652
2.205	0.0407257080078	 	4.00718688965
2.21	0.0382843017578	 	4.00718688965
2.215	0.0589599609375	 	4.00718688965
2.22	0.0516357421875	 	4.00840759277
2.225	0.00311279296875	 	4.0096282959
2.23	-0.0430450439453	 	4.01206970215
2.235	-0.0721893310547	 	4.01329040527
2.24	-0.126815795898	 	4.01573181152
2.245	-0.174194335938	 	4.0145111084
2.25	-0.224014282227	 	4.01695251465
2.255	-0.254379272461	 	4.01817321777
2.26	-0.267730712891	 	4.01931762695
2.265	-0.254379272461	 	4.01931762695
2.27	-0.237365722656	 	4.01817321777
2.275	-0.219131469727	 	4.01931762695
2.28	-0.231262207031	 	4.02297973633
2.285	-0.230117797852	 	4.0217590332
2.29	-0.222793579102	 	4.0217590332
2.295	-0.193649291992	 	4.02297973633
2.3	-0.214324951172	 	4.02297973633
2.305	-0.293212890625	 	4.02420043945
2.31	-0.31510925293	 	4.0266418457
2.315	-0.220352172852	 	4.0266418457
2.32	-0.0139007568359	 	4.02297973633
2.325	0.378326416016	 	4.02053833008
2.33	0.890869140625	 	4.01817321777
2.335	1.14950561523	 	4.01817321777
2.34	0.858062744141	 	4.01931762695
2.345	0.394119262695	 	4.02053833008
2.35	-0.0333557128906	 	4.0266418457
2.355	-0.217910766602	 	4.03030395508
2.36	-0.265289306641	 	4.03030395508
2.365	-0.267730712891	 	4.03274536133
2.37	-0.268951416016	 	4.0315246582
2.375	-0.254379272461	 	4.0315246582
2.38	-0.237365722656	 	4.03274536133
2.385	-0.237365722656	 	4.03511047363
2.39	-0.227676391602	 	4.03633117676
2.395	-0.216690063477	 	4.03511047363
2.4	-0.175415039063	 	4.03511047363
2.405	-0.152374267578	 	4.03396606445
2.41	-0.140243530273	 	4.03274536133
2.415	-0.125671386719	 	4.03274536133
2.42	-0.113464355469	 	4.03030395508
2.425	-0.101333618164	 	4.0315246582
2.43	-0.0867614746094	 	4.03396606445
2.435	-0.0807342529297	 	4.03396606445
2.44	-0.0879821777344	 	4.03396606445
2.445	-0.0515899658203	 	4.03396606445
2.45	-0.00543212890625	 	4.03755187988
2.455	0.0128021240234	 	4.03755187988
2.46	0.00669860839844	 	4.04243469238
2.465	0.0237121582031	 	4.04243469238
2.47	0.0540771484375	 	4.04609680176
2.475	0.0784149169922	 	4.04975891113
2.48	0.0942077636719	 	4.05334472656
2.485	0.129379272461	 	4.05334472656
2.49	0.151275634766	 	4.05334472656
2.495	0.164627075195	 	4.05944824219
2.5	0.164627075195	 	4.06188964844
2.505	0.140289306641	 	4.06311035156
2.51	0.106338500977	 	4.06669616699
2.515	0.0905456542969	 	4.06669616699
2.52	0.0881042480469	 	4.06791687012
2.525	0.0807800292969	 	4.06913757324
2.53	0.0456085205078	 	4.07157897949
2.535	0.0189056396484	 	4.07157897949
2.54	0.00189208984375	 	4.07279968262
2.545	-0.0393829345703	 	4.07768249512
2.55	-0.0685272216797	 	4.07768249512
2.555	-0.0770721435547	 	4.07890319824
2.56	-0.0685272216797	 	4.08012390137
2.565	-0.0576171875	 	4.08134460449
2.57	-0.0709686279297	 	4.08134460449
2.575	-0.058837890625	 	4.08248901367
2.58	-0.061279296875	 	4.08248901367
2.585	-0.0709686279297	 	4.08493041992
2.59	-0.0576171875	 	4.0837097168
2.595	-0.0830993652344	 	4.08737182617
2.6	-0.0916442871094	 	4.08737182617
2.605	-0.0928649902344	 	4.08737182617
2.61	-0.0928649902344	 	4.0885925293
2.615	-0.0940856933594	 	4.09103393555
2.62	-0.0879821777344	 	4.09225463867
2.625	-0.0770721435547	 	4.09225463867
2.63	-0.0867614746094	 	4.09469604492
2.635	-0.0855407714844	 	4.09591674805
2.64	-0.058837890625	 	4.09713745117
2.645	-0.0200042724609	 	4.09950256348
2.65	0.0164642333984	 	4.10194396973
2.655	-0.00299072265625	 	4.10438537598
2.66	-0.0163421630859	 	4.1056060791
2.665	0.00914001464844	 	4.1056060791
2.67	0.0273742675781	 	4.10804748535
2.675	0.0322570800781	 	4.11170959473
2.68	0.0419464111328	 	4.11170959473
2.685	0.0577392578125	 	4.11407470703
2.69	0.0237121582031	 	4.11651611328
2.695	-0.0235900878906	 	4.11895751953
2.7	-0.104995727539	 	4.12017822266
2.705	-0.185180664063	 	4.12384033203
2.71	-0.222793579102	 	4.12506103516
2.715	-0.238586425781	 	4.12628173828
2.72	-0.251937866211	 	4.12750244141
2.725	-0.256820678711	 	4.12994384766
2.73	-0.258041381836	 	4.12994384766
2.735	-0.256820678711	 	4.12994384766
2.74	-0.258041381836	 	4.13108825684
2.745	-0.243469238281	 	4.13352966309
2.75	-0.231262207031	 	4.13475036621
2.755	-0.220352172852	 	4.13597106934
2.76	-0.226455688477	 	4.13841247559
2.765	-0.262847900391	 	4.13963317871
2.77	-0.31022644043	 	4.14207458496
2.775	-0.27864074707	 	4.14573669434
2.78	-0.159622192383	 	4.14329528809
2.785	0.0771942138672	 	4.14329528809
2.79	0.459732055664	 	4.14451599121
2.795	0.916351318359	 	4.13963317871
2.8	0.949157714844	 	4.14085388184
2.805	0.622467041016	 	4.14573669434
2.81	0.209564208984	 	4.15054321289
2.815	-0.109878540039	 	4.15664672852
2.82	-0.221572875977	 	4.15908813477
2.825	-0.274978637695	 	4.16030883789
2.83	-0.28352355957	 	4.1626739502
2.835	-0.274978637695	 	4.16389465332
2.84	-0.262847900391	 	4.16389465332
2.845	-0.236145019531	 	4.16511535645
2.85	-0.224014282227	 	4.1675567627
2.855	-0.210662841797	 	4.1675567627
2.86	-0.203338623047	 	4.16877746582
2.865	-0.193649291992	 	4.16999816895
2.87	-0.185180664063	 	4.16633605957
2.875	-0.165725708008	 	4.1675567627
2.88	-0.139022827148	 	4.16999816895
2.885	-0.0867614746094	 	4.17121887207
2.89	-0.06005859375	 	4.16999816895
2.895	-0.052734375	 	4.17121887207
2.9	-0.056396484375	 	4.17488098145
2.905	-0.0321350097656	 	4.17488098145
2.91	-0.0200042724609	 	4.17846679688
2.915	0.00067138671875	 	4.17846679688
2.92	-0.0235900878906	 	4.18090820313
2.925	-0.00543212890625	 	4.1845703125
2.93	0.00555419921875	 	4.18701171875
2.935	0.00669860839844	 	4.18823242188
2.94	0.0540771484375	 	4.18823242188
2.945	0.0552978515625	 	4.189453125
2.95	0.0942077636719	 	4.19189453125
2.955	0.141510009766	 	4.19067382813
2.96	0.167068481445	 	4.19067382813
2.965	0.17919921875	 	4.19311523438
2.97	0.167068481445	 	4.19425964355
2.975	0.159744262695	 	4.19548034668
2.98	0.124572753906	 	4.19792175293
2.985	0.111145019531	 	4.19548034668
2.99	0.114807128906	 	4.19914245605
2.995	0.0771942138672	 	4.20036315918
3	0.0407257080078	 	4.20402526855
3.005	0.0103607177734	 	4.20402526855
3.01	-0.00543212890625	 	4.20280456543
3.015	-0.0187835693359	 	4.20524597168
3.02	-0.0187835693359	 	4.20402526855
3.025	-0.0357971191406	 	4.20524597168
3.03	-0.0345764160156	 	4.20524597168
3.035	-0.0248107910156	 	4.20524597168
3.04	-0.0235900878906	 	4.20524597168
3.045	-0.0224456787109	 	4.2064666748
3.05	-0.0187835693359	 	4.20890808105
3.055	-0.0430450439453	 	4.21127319336
3.06	-0.0503692626953	 	4.21859741211
3.065	-0.0345764160156	 	4.21737670898
3.07	-0.0393829345703	 	4.21859741211
3.075	-0.0381622314453	 	4.22103881836
3.08	-0.0333557128906	 	4.22348022461
3.085	-0.0102386474609	 	4.22348022461
3.09	0.00791931152344	 	4.22225952148
3.095	0.0152435302734	 	4.22225952148
3.1	0.0382843017578	 	4.22348022461
3.105	0.0310363769531	 	4.22470092773
3.11	0.0395050048828	 	4.22584533691
3.115	0.0395050048828	 	4.22706604004
3.12	0.0407257080078	 	4.22828674316
3.125	0.0310363769531	 	4.23316955566
3.13	0.0298156738281	 	4.23316955566
3.135	0.0771942138672	 	4.23439025879
3.14	0.0626220703125	 	4.23316955566
3.145	-0.00421142578125	 	4.23561096191
3.15	-0.0709686279297	 	4.23683166504
3.155	-0.140243530273	 	4.24163818359
3.16	-0.188766479492	 	4.24163818359
3.165	-0.219131469727	 	4.24285888672
3.17	-0.230117797852	 	4.24407958984
3.175	-0.242248535156	 	4.24530029297
3.18	-0.251937866211	 	4.24774169922
3.185	-0.237365722656	 	4.24652099609
3.19	-0.249496459961	 	4.25018310547
3.195	-0.248275756836	 	4.25262451172
3.2	-0.214324951172	 	4.25262451172
3.205	-0.183959960938	 	4.25262451172
3.21	-0.189987182617	 	4.25140380859
3.215	-0.243469238281	 	4.25140380859
3.22	-0.29443359375	 	4.25628662109
3.225	-0.30419921875	 	4.25750732422
3.23	-0.228897094727	 	4.2586517334
3.235	-0.0491485595703	 	4.25628662109
3.24	0.279983520508	 	4.25384521484
3.245	0.796112060547	 	4.25140380859
3.25	1.17140197754	 	4.24774169922
3.255	1.05841064453	 	4.25262451172
3.26	0.638259887695	 	4.25628662109
3.265	0.117248535156	 	4.26231384277
3.27	-0.141464233398	 	4.2635345459
3.275	-0.210662841797	 	4.26719665527
3.28	-0.210662841797	 	4.27207946777
3.285	-0.204559326172	 	4.27085876465
3.29	-0.209442138672	 	4.26963806152
3.295	-0.193649291992	 	4.27085876465
3.3	-0.221572875977	 	4.27207946777
3.305	-0.217910766602	 	4.27207946777
3.31	-0.193649291992	 	4.27444458008
3.315	-0.168167114258	 	4.2733001709
3.32	-0.154815673828	 	4.2733001709
3.325	-0.148712158203	 	4.2733001709
3.33	-0.108657836914	 	4.2756652832
3.335	-0.0770721435547	 	4.27444458008
3.34	-0.0697479248047	 	4.2733001709
3.345	-0.0467071533203	 	4.2733001709
3.35	-0.00299072265625	 	4.2756652832
3.355	0.0249328613281	 	4.27688598633
3.36	0.0431671142578	 	4.28176879883
3.365	0.100234985352	 	4.2805480957
3.37	0.120910644531	 	4.27810668945
3.375	0.139144897461	 	4.27810668945
3.38	0.173095703125	 	4.2805480957
3.385	0.159744262695	 	4.28176879883
3.39	0.164627075195	 	4.28176879883
3.395	0.16096496582	 	4.2805480957
3.4	0.216812133789	 	4.28298950195
3.405	0.270294189453	 	4.28421020508
3.41	0.277542114258	 	4.28298950195
3.415	0.292114257813	 	4.28421020508
3.42	0.242370605469	 	4.2854309082
3.425	0.238708496094	 	4.2854309082
3.43	0.296997070313	 	4.28421020508
3.435	0.296997070313	 	4.2854309082
3.44	0.284866333008	 	4.2854309082
3.445	0.219253540039	 	4.28665161133
3.45	0.188888549805	 	4.28909301758
3.455	0.170654296875	 	4.29145812988
3.46	0.19499206543	 	4.29023742676
3.465	0.19743347168	 	4.29023742676
3.47	0.18408203125	 	4.29023742676
3.475	0.15608215332	 	4.29145812988
3.48	0.140289306641	 	4.29145812988
3.485	0.16096496582	 	4.29023742676
3.49	0.159744262695	 	4.29267883301
3.495	0.142730712891	 	4.29267883301
3.5	0.135482788086	 	4.29512023926
3.505	0.154861450195	 	4.29389953613
3.51	0.19010925293	 	4.29389953613
3.515	0.16584777832	 	4.29512023926
3.52	0.205902099609	 	4.29634094238
3.525	0.213226318359	 	4.29267883301
3.53	0.204681396484	 	4.29389953613
3.535	0.237487792969	 	4.29512023926
3.54	0.225357055664	 	4.29512023926
3.545	0.236267089844	 	4.29512023926
3.55	0.238708496094	 	4.29634094238
3.555	0.226577758789	 	4.29878234863
3.56	0.238708496094	 	4.29756164551
3.565	0.222915649414	 	4.29878234863
3.57	0.272735595703	 	4.29878234863
3.575	0.242370605469	 	4.29756164551
3.58	0.18408203125	 	4.30122375488
3.585	0.134262084961	 	4.30244445801
3.59	0.124572753906	 	4.30244445801
3.595	-0.00299072265625	 	4.30366516113
3.6	-0.0916442871094	 	4.30488586426
3.605	-0.113464355469	 	4.30603027344
3.61	-0.159622192383	 	4.30603027344
3.615	-0.176635742188	 	4.30847167969
3.62	-0.234924316406	 	4.30969238281
3.625	-0.234924316406	 	4.31091308594
3.63	-0.204559326172	 	4.31091308594
3.635	-0.211883544922	 	4.30969238281
3.64	-0.224014282227	 	4.30969238281
3.645	-0.200897216797	 	4.30969238281
3.65	-0.192428588867	 	4.31091308594
3.655	-0.194869995117	 	4.31335449219
3.66	-0.261627197266	 	4.31457519531
3.665	-0.309005737305	 	4.31457519531
3.67	-0.282302856445	 	4.31457519531
3.675	-0.151153564453	 	4.30969238281
3.68	0.0395050048828	 	4.30969238281
3.685	0.437835693359	 	4.30847167969
3.69	1.02323913574	 	4.30488586426
3.695	1.1070098877	 	4.30366516113
3.7	0.804656982422	 	4.30847167969
3.705	0.281204223633	 	4.31213378906
3.71	-0.114685058594	 	4.31335449219
3.715	-0.226455688477	 	4.31579589844
3.72	-0.267730712891	 	4.31945800781
3.725	-0.277420043945	 	4.31701660156
3.73	-0.28108215332	 	4.31823730469
3.735	-0.28840637207	 	4.32067871094
3.74	-0.2919921875	 	4.31945800781
3.745	-0.290771484375	 	4.31945800781
3.75	-0.272613525391	 	4.31945800781
3.755	-0.272613525391	 	4.32067871094
3.76	-0.258041381836	 	4.31945800781
3.765	-0.224014282227	 	4.31945800781
3.77	-0.217910766602	 	4.31823730469
3.775	-0.227676391602	 	4.31945800781
3.78	-0.230117797852	 	4.31945800781
3.785	-0.207000732422	 	4.32067871094
3.79	-0.149932861328	 	4.31823730469
3.795	-0.136581420898	 	4.31701660156
3.8	-0.156036376953	 	4.31823730469
3.805	-0.146270751953	 	4.31945800781
3.81	-0.128036499023	 	4.31823730469
3.815	-0.115905761719	 	4.31579589844
3.82	-0.108657836914	 	4.31579589844
3.825	-0.0965270996094	 	4.31457519531
3.83	-0.0830993652344	 	4.31457519531
3.835	-0.0855407714844	 	4.31579589844
3.84	-0.0673828125	 	4.31579589844
3.845	-0.0503692626953	 	4.31457519531
3.85	-0.061279296875	 	4.31213378906
3.855	-0.0491485595703	 	4.31335449219
3.86	-0.0406036376953	 	4.31335449219
3.865	-0.0309143066406	 	4.31335449219
3.87	-0.0345764160156	 	4.31579589844
3.875	-0.0515899658203	 	4.31213378906
3.88	-0.0709686279297	 	4.31213378906
3.885	-0.0988922119141	 	4.31335449219
3.89	-0.118347167969	 	4.31213378906
3.895	-0.130477905273	 	4.31091308594
3.9	-0.148712158203	 	4.30969238281
3.905	-0.175415039063	 	4.31091308594
3.91	-0.175415039063	 	4.31091308594
3.915	-0.165725708008	 	4.30847167969
3.92	-0.166946411133	 	4.30969238281
3.925	-0.172973632813	 	4.30969238281
3.93	-0.171752929688	 	4.30603027344
3.935	-0.169387817383	 	4.30603027344
3.94	-0.165725708008	 	4.30366516113
3.945	-0.160842895508	 	4.30000305176
3.95	-0.160842895508	 	4.30122375488
3.955	-0.160842895508	 	4.30000305176
3.96	-0.154815673828	 	4.29878234863
3.965	-0.141464233398	 	4.29634094238
3.97	-0.112243652344	 	4.29634094238
3.975	-0.113464355469	 	4.29267883301
3.98	-0.106216430664	 	4.29267883301
3.985	-0.100112915039	 	4.29267883301
3.99	-0.104995727539	 	4.29145812988
3.995	-0.125671386719	 	4.29145812988
4	-0.134140014648	 	4.28909301758
4.005	-0.135360717773	 	4.28909301758
4.01	-0.143829345703	 	4.28909301758
4.015	-0.151153564453	 	4.28909301758
4.02	-0.158401489258	 	4.2854309082
4.025	-0.187545776367	 	4.28665161133
4.03	-0.227676391602	 	4.28665161133
4.035	-0.28596496582	 	4.28665161133
4.04	-0.330902099609	 	4.2854309082
4.045	-0.360046386719	 	4.28421020508
4.05	-0.386749267578	 	4.28421020508
4.055	-0.392852783203	 	4.28176879883
4.06	-0.400100708008	 	4.28298950195
4.065	-0.403762817383	 	4.2805480957
4.07	-0.404983520508	 	4.2805480957
4.075	-0.393997192383	 	4.27688598633
4.08	-0.384307861328	 	4.2756652832
4.085	-0.380645751953	 	4.27688598633
4.09	-0.369735717773	 	4.27444458008
4.095	-0.377059936523	 	4.27444458008
4.1	-0.451141357422	 	4.2756652832
4.105	-0.511795043945	 	4.2756652832
4.11	-0.463272094727	 	4.27207946777
4.115	-0.324798583984	 	4.27085876465
4.12	-0.126815795898	 	4.26719665527
4.125	0.317596435547	 	4.26231384277
4.13	0.867752075195	 	4.25750732422
4.135	0.848373413086	 	4.2586517334
4.14	0.465759277344	 	4.25987243652
4.145	-0.0418243408203	 	4.26231384277
4.15	-0.279861450195	 	4.26231384277
4.155	-0.369735717773	 	4.26231384277
4.16	-0.383087158203	 	4.25987243652
4.165	-0.393997192383	 	4.2586517334
4.17	-0.403762817383	 	4.25628662109
4.175	-0.411010742188	 	4.25384521484
4.18	-0.395217895508	 	4.25384521484
4.185	-0.381866455078	 	4.25262451172
4.19	-0.377059936523	 	4.25140380859
4.195	-0.372177124023	 	4.24774169922
4.2	-0.355163574219	 	4.24407958984
4.205	-0.334487915039	 	4.24163818359
4.21	-0.326019287109	 	4.24285888672
4.215	-0.319915771484	 	4.23805236816
4.22	-0.311447143555	 	4.23683166504
4.225	-0.284744262695	 	4.23439025879
4.23	-0.259262084961	 	4.23072814941
4.235	-0.251937866211	 	4.23194885254
4.24	-0.245834350586	 	4.22706604004
4.245	-0.243469238281	 	4.22706604004
4.25	-0.219131469727	 	4.22584533691
4.255	-0.196090698242	 	4.22348022461
4.26	-0.186325073242	 	4.22225952148
4.265	-0.164505004883	 	4.22103881836
4.27	-0.145050048828	 	4.21981811523
4.275	-0.137802124023	 	4.21737670898
4.28	-0.131698608398	 	4.21859741211
4.285	-0.119567871094	 	4.21737670898
4.29	-0.117126464844	 	4.21493530273
4.295	-0.115905761719	 	4.21371459961
4.3	-0.113464355469	 	4.21127319336
4.305	-0.111099243164	 	4.20768737793
4.31	-0.107437133789	 	4.20402526855
4.315	-0.111099243164	 	4.20280456543
4.32	-0.115905761719	 	4.20036315918
4.325	-0.122009277344	 	4.1967010498
4.33	-0.145050048828	 	4.19548034668
4.335	-0.171752929688	 	4.19311523438
4.34	-0.194869995117	 	4.19189453125
4.345	-0.192428588867	 	4.18823242188
4.35	-0.177856445313	 	4.18701171875
4.355	-0.166946411133	 	4.18334960938
4.36	-0.169387817383	 	4.18212890625
4.365	-0.169387817383	 	4.18212890625
4.37	-0.170608520508	 	4.1773223877
4.375	-0.171752929688	 	4.17488098145
4.38	-0.162063598633	 	4.17121887207
4.385	-0.169387817383	 	4.16877746582
4.39	-0.180297851563	 	4.16633605957
4.395	-0.154815673828	 	4.16511535645
4.4	-0.117126464844	 	4.16389465332
4.405	-0.0940856933594	 	4.16389465332
4.41	-0.0965270996094	 	4.1626739502
4.415	-0.0940856933594	 	4.16030883789
4.42	-0.0843200683594	 	4.16030883789
4.425	-0.0879821777344	 	4.15664672852
4.43	-0.0879821777344	 	4.15542602539
4.435	-0.0916442871094	 	4.15542602539
4.44	-0.0879821777344	 	4.15298461914
4.445	-0.0734100341797	 	4.15054321289
4.45	-0.06494140625	 	4.14932250977
4.455	-0.0734100341797	 	4.14688110352
4.46	-0.0879821777344	 	4.14688110352
4.465	-0.0965270996094	 	4.14573669434
4.47	-0.120788574219	 	4.14207458496
4.475	-0.181518554688	 	4.14085388184
4.48	-0.238586425781	 	4.14329528809
4.485	-0.274978637695	 	4.14085388184
4.49	-0.30778503418	 	4.14085388184
4.495	-0.334487915039	 	4.13841247559
4.5	-0.353942871094	 	4.13963317871
4.505	-0.346694946289	 	4.13719177246
4.51	-0.323577880859	 	4.13841247559
4.515	-0.316329956055	 	4.13597106934
4.52	-0.313888549805	 	4.13475036621
4.525	-0.30419921875	 	4.13597106934
4.53	-0.293212890625	 	4.13475036621
4.535	-0.277420043945	 	4.13475036621
4.54	-0.309005737305	 	4.13475036621
4.545	-0.395217895508	 	4.13475036621
4.55	-0.402542114258	 	4.13475036621
4.555	-0.295654296875	 	4.13108825684
4.56	-0.0819549560547	 	4.12750244141
4.565	0.385650634766	 	4.12261962891
4.57	0.987991333008	 	4.12139892578
4.575	1.35595703125	 	4.11651611328
4.58	1.10334777832	 	4.11651611328
4.585	0.617584228516	 	4.11773681641
4.59	0.0407257080078	 	4.12139892578
4.595	-0.198532104492	 	4.12017822266
4.6	-0.262847900391	 	4.12017822266
4.605	-0.290771484375	 	4.12017822266
4.61	-0.324798583984	 	4.11651611328
4.615	-0.329681396484	 	4.11529541016
4.62	-0.321136474609	 	4.11407470703
4.625	-0.31755065918	 	4.11170959473
4.63	-0.300537109375	 	4.10682678223
4.635	-0.28108215332	 	4.10438537598
4.64	-0.268951416016	 	4.1007232666
4.645	-0.234924316406	 	4.09591674805
4.65	-0.191207885742	 	4.08737182617
4.655	-0.158401489258	 	4.08248901367
4.66	-0.134140014648	 	4.08012390137
4.665	-0.128036499023	 	4.07768249512
4.67	-0.115905761719	 	4.07402038574
4.675	-0.112243652344	 	4.07402038574
4.68	-0.0807342529297	 	4.07402038574
4.685	-0.0467071533203	 	4.07279968262
4.69	-0.0515899658203	 	4.07157897949
4.695	-0.0442657470703	 	4.07157897949
4.7	-0.00421142578125	 	4.06913757324
4.705	0.0516357421875	 	4.06791687012
4.71	0.0674285888672	 	4.06669616699
4.715	0.101455688477	 	4.06555175781
4.72	0.137924194336	 	4.06433105469
4.725	0.154861450195	 	4.06311035156
4.73	0.180419921875	 	4.06311035156
4.735	0.17919921875	 	4.06188964844
4.74	0.16943359375	 	4.05700683594
4.745	0.180419921875	 	4.05822753906
4.75	0.15608215332	 	4.05822753906
4.755	0.125717163086	 	4.05822753906
4.76	0.0965728759766	 	4.05334472656
4.765	0.0844421386719	 	4.05212402344
4.77	0.106338500977	 	4.04731750488
4.775	0.0905456542969	 	4.04609680176
4.78	0.0881042480469	 	4.04609680176
4.785	0.0929870605469	 	4.04243469238
4.79	0.0905456542969	 	4.03877258301
4.795	0.0942077636719	 	4.03633117676
4.8	0.0698699951172	 	4.03755187988
4.805	0.0359191894531	 	4.03511047363
4.81	0.0540771484375	 	4.03396606445
4.815	0.0382843017578	 	4.0315246582
4.82	0.0322570800781	 	4.03030395508
4.825	0.0285949707031	 	4.02908325195
4.83	-0.0126800537109	 	4.0266418457
4.835	-0.0393829345703	 	4.0266418457
4.84	-0.0357971191406	 	4.02420043945
4.845	-0.0139007568359	 	4.02053833008
4.85	-0.0321350097656	 	4.0217590332
4.855	-0.0357971191406	 	4.01931762695
4.86	-0.0235900878906	 	4.01817321777
4.865	-0.0151214599609	 	4.0145111084
4.87	0.00914001464844	 	4.01206970215
4.875	0.0407257080078	 	4.0096282959
4.88	0.0917663574219	 	4.00840759277
4.885	0.128158569336	 	4.00718688965
4.89	0.148834228516	 	4.0047454834
4.895	0.17431640625	 	4.00352478027
4.9	0.19743347168	 	4.00352478027
4.905	0.19499206543	 	4.00115966797
4.91	0.188888549805	 	4.00238037109
4.915	0.16340637207	 	3.99993896484
4.92	0.153717041016	 	3.99871826172
4.925	0.148834228516	 	3.99871826172
4.93	0.135482788086	 	3.99993896484
4.935	0.0492706298828	 	3.99749755859
4.94	-0.0381622314453	 	3.99749755859
4.945	-0.0940856933594	 	3.99627685547
4.95	-0.126815795898	 	3.99505615234
4.955	-0.160842895508	 	3.99505615234
4.96	-0.210662841797	 	3.99383544922
4.965	-0.230117797852	 	3.99261474609
4.97	-0.211883544922	 	3.99017333984
4.975	-0.199752807617	 	3.98895263672
4.98	-0.189987182617	 	3.98895263672
4.985	-0.168167114258	 	3.98895263672
4.99	-0.149932861328	 	3.98895263672
4.995	-0.142608642578	 	3.98773193359
5	-0.124450683594	 	3.98895263672
5.005	-0.135360717773	 	3.99017333984
5.01	-0.220352172852	 	3.99017333984
5.015	-0.242248535156	 	3.98895263672
5.02	-0.165725708008	 	3.98895263672
5.025	0.105117797852	 	3.98651123047
5.03	0.547164916992	 	3.98414611816
5.035	1.05360412598	 	3.98048400879
5.04	1.32681274414	 	3.97926330566
5.045	1.07420349121	 	3.98048400879
5.05	0.638259887695	 	3.98048400879
5.055	0.126937866211	 	3.98536682129
5.06	-0.122009277344	 	3.98773193359
5.065	-0.191207885742	 	3.98536682129
5.07	-0.214324951172	 	3.98170471191
5.075	-0.181518554688	 	3.98048400879
5.08	-0.152374267578	 	3.98048400879
5.085	-0.179077148438	 	3.97926330566
5.09	-0.179077148438	 	3.97926330566
5.095	-0.151153564453	 	3.98048400879
5.1	-0.104995727539	 	3.98048400879
5.105	-0.0795135498047	 	3.98048400879
5.11	-0.101333618164	 	3.97804260254
5.115	-0.0746307373047	 	3.97926330566
5.12	-0.0345764160156	 	3.97804260254
5.125	0.0115814208984	 	3.97682189941
5.13	0.0261535644531	 	3.97682189941
5.135	0.0359191894531	 	3.97438049316
5.14	0.0807800292969	 	3.97071838379
5.145	0.142730712891	 	3.97071838379
5.15	0.145172119141	 	3.97071838379
5.155	0.140289306641	 	3.97071838379
5.16	0.0965728759766	 	3.97193908691
5.165	0.130599975586	 	3.97193908691
5.17	0.177978515625	 	3.97071838379
5.175	0.222915649414	 	3.97071838379
5.18	0.269073486328	 	3.97071838379
5.185	0.326141357422	 	3.96957397461
5.19	0.367416381836	 	3.96957397461
5.195	0.388092041016	 	3.97193908691
5.2	0.40022277832	 	3.96713256836
5.205	0.369857788086	 	3.96835327148
5.21	0.363754272461	 	3.96835327148
5.215	0.414794921875	 	3.96469116211
5.22	0.436614990234	 	3.96591186523
5.225	0.425704956055	 	3.96469116211
5.23	0.396560668945	 	3.96224975586
5.235	0.331024169922	 	3.96102905273
5.24	0.349182128906	 	3.96102905273
5.245	0.312789916992	 	3.95858764648
5.25	0.237487792969	 	3.95980834961
5.255	0.133041381836	 	3.96102905273
5.26	0.0614013671875	 	3.95858764648
5.265	0.0650634765625	 	3.95492553711
5.27	0.124572753906	 	3.95011901855
5.275	0.103897094727	 	3.95011901855
5.28	0.0710906982422	 	3.95011901855
5.285	0.0723114013672	 	3.94889831543
5.29	0.123352050781	 	3.94889831543
5.295	0.117248535156	 	3.94645690918
5.3	0.103897094727	 	3.94523620605
5.305	0.0686492919922	 	3.94523620605
5.31	0.0868835449219	 	3.94523620605
5.315	0.105117797852	 	3.94523620605
5.32	0.133041381836	 	3.94645690918
5.325	0.118469238281	 	3.94645690918
5.33	0.0929870605469	 	3.94645690918
5.335	0.140289306641	 	3.94645690918
5.34	0.145172119141	 	3.94645690918
5.345	0.117248535156	 	3.94645690918
5.35	0.16828918457	 	3.9476776123
5.355	0.18766784668	 	3.94523620605
5.36	0.196212768555	 	3.94645690918
5.365	0.181640625	 	3.94645690918
5.37	0.230163574219	 	3.94523620605
5.375	0.239929199219	 	3.94523620605
5.38	0.182861328125	 	3.94645690918
5.385	0.204681396484	 	3.94523620605
5.39	0.222915649414	 	3.9427947998
5.395	0.222915649414	 	3.93676757813
5.4	0.216812133789	 	3.93432617188
5.405	0.143951416016	 	3.93310546875
5.41	0.0638427734375	 	3.93188476563
5.415	-0.0758514404297	 	3.93188476563
5.42	-0.117126464844	 	3.9306640625
5.425	-0.117126464844	 	3.92822265625
5.43	-0.129257202148	 	3.92822265625
5.435	-0.146270751953	 	3.92700195313
5.44	-0.156036376953	 	3.92700195313
5.445	-0.148712158203	 	3.92578125
5.45	-0.126815795898	 	3.92333984375
5.455	-0.111099243164	 	3.92333984375
5.46	-0.146270751953	 	3.92456054688
5.465	-0.137802124023	 	3.92456054688
5.47	-0.142608642578	 	3.92097473145
5.475	-0.152374267578	 	3.92333984375
5.48	-0.171752929688	 	3.92333984375
5.485	-0.149932861328	 	3.92456054688
5.49	-0.0442657470703	 	3.92456054688
5.495	0.17919921875	 	3.92219543457
5.5	0.63215637207	 	3.91975402832
5.505	1.10334777832	 	3.91731262207
5.51	0.975860595703	 	3.91731262207
5.515	0.578750610352	 	3.9185333252
5.52	0.123352050781	 	3.92097473145
5.525	-0.147491455078	 	3.92097473145
5.53	-0.242248535156	 	3.92097473145
5.535	-0.251937866211	 	3.92097473145
5.54	-0.217910766602	 	3.91731262207
5.545	-0.219131469727	 	3.91609191895
5.55	-0.224014282227	 	3.91487121582
5.555	-0.193649291992	 	3.9136505127
5.56	-0.196090698242	 	3.91242980957
5.565	-0.198532104492	 	3.91120910645
5.57	-0.185180664063	 	3.91242980957
5.575	-0.174194335938	 	3.91120910645
5.58	-0.164505004883	 	3.91120910645
5.585	-0.117126464844	 	3.91120910645
5.59	-0.0855407714844	 	3.91242980957
5.595	-0.0576171875	 	3.91242980957
5.6	-0.0867614746094	 	3.91120910645
5.605	-0.0928649902344	 	3.91120910645
5.61	-0.0782928466797	 	3.91120910645
5.615	-0.0697479248047	 	3.9136505127
5.62	-0.0381622314453	 	3.91242980957
5.625	0.0370635986328	 	3.9136505127
5.63	0.140289306641	 	3.91242980957
5.635	0.143951416016	 	3.91120910645
5.64	0.107559204102	 	3.9136505127
5.645	0.133041381836	 	3.91975402832
5.65	0.16828918457	 	3.92219543457
5.655	0.18766784668	 	3.92097473145
5.66	0.238708496094	 	3.91975402832
5.665	0.243515014648	 	3.92097473145
5.67	0.198654174805	 	3.92219543457
5.675	0.135482788086	 	3.92219543457
5.68	0.113586425781	 	3.92097473145
5.685	0.116027832031	 	3.91975402832
5.69	0.0977935791016	 	3.9185333252
5.695	-0.0260314941406	 	3.91975402832
5.7	-0.0904235839844	 	3.91975402832
5.705	-0.117126464844	 	3.91609191895
5.71	-0.134140014648	 	3.91609191895
5.715	-0.146270751953	 	3.9136505127
5.72	-0.179077148438	 	3.91487121582
5.725	-0.185180664063	 	3.91731262207
5.73	-0.185180664063	 	3.92097473145
5.735	-0.165725708008	 	3.92219543457
5.74	-0.180297851563	 	3.92097473145
5.745	-0.189987182617	 	3.92097473145
5.75	-0.189987182617	 	3.92333984375
5.755	-0.168167114258	 	3.92333984375
5.76	-0.187545776367	 	3.92578125
5.765	-0.186325073242	 	3.92578125
5.77	-0.176635742188	 	3.92578125
5.775	-0.154815673828	 	3.92456054688
5.78	-0.172973632813	 	3.92700195313
5.785	-0.169387817383	 	3.92700195313
5.79	-0.147491455078	 	3.92578125
5.795	-0.136581420898	 	3.92822265625
5.8	-0.172973632813	 	3.92700195313
5.805	-0.134140014648	 	3.9306640625
5.81	-0.0721893310547	 	3.92944335938
5.815	-0.103775024414	 	3.92944335938
5.82	-0.156036376953	 	3.92944335938
5.825	-0.164505004883	 	3.92822265625
5.83	-0.182739257813	 	3.92578125
5.835	-0.149932861328	 	3.92578125
5.84	-0.158401489258	 	3.92097473145
5.845	-0.146270751953	 	3.91975402832
5.85	-0.148712158203	 	3.91731262207
5.855	-0.157180786133	 	3.91731262207
5.86	-0.177856445313	 	3.91731262207
5.865	-0.199752807617	 	3.91731262207
5.87	-0.253158569336	 	3.9185333252
5.875	-0.298095703125	 	3.91731262207
5.88	-0.333343505859	 	3.91975402832
5.885	-0.330902099609	 	3.91975402832
5.89	-0.298095703125	 	3.9185333252
5.895	-0.272613525391	 	3.91975402832
5.9	-0.31755065918	 	3.91975402832
5.905	-0.282302856445	 	3.91975402832
5.91	-0.237365722656	 	3.92097473145
5.915	-0.247055053711	 	3.9185333252
5.92	-0.222793579102	 	3.91731262207
5.925	-0.227676391602	 	3.91731262207
5.93	-0.271392822266	 	3.91975402832
5.935	-0.343032836914	 	3.92219543457
5.94	-0.379425048828	 	3.91975402832
5.945	-0.226455688477	 	3.92097473145
5.95	0.106338500977	 	3.91731262207
5.955	0.593322753906	 	3.91242980957
5.96	0.974639892578	 	3.91242980957
5.965	0.901779174805	 	3.9087677002
5.97	0.445159912109	 	3.91120910645
5.975	-0.0479278564453	 	3.9136505127
5.98	-0.249496459961	 	3.9136505127
5.985	-0.368515014648	 	3.91609191895
5.99	-0.367294311523	 	3.9136505127
5.995	-0.332122802734	 	3.91120910645
6	-0.329681396484	 	3.91242980957
6.005	-0.30778503418	 	3.90998840332
6.01	-0.3017578125	 	3.9087677002
6.015	-0.28596496582	 	3.90640258789
6.02	-0.260406494141	 	3.90518188477
6.025	-0.251937866211	 	3.90151977539
6.03	-0.224014282227	 	3.90518188477
6.035	-0.197311401367	 	3.90396118164
6.04	-0.163284301758	 	3.90274047852
6.045	-0.142608642578	 	3.89785766602
6.05	-0.124450683594	 	3.89785766602
6.055	-0.136581420898	 	3.90029907227
6.06	-0.136581420898	 	3.90151977539
6.065	-0.122009277344	 	3.90151977539
6.07	-0.0965270996094	 	3.90640258789
6.075	-0.0734100341797	 	3.90640258789
6.08	-0.0503692626953	 	3.90640258789
6.085	-0.00665283203125	 	3.90754699707
6.09	0.0395050048828	 	3.90754699707
6.095	0.0868835449219	 	3.90754699707
6.1	0.157302856445	 	3.90640258789
6.105	0.208343505859	 	3.90518188477
6.11	0.259307861328	 	3.90754699707
6.115	0.340713500977	 	3.90998840332
6.12	0.41845703125	 	3.91242980957
6.125	0.39533996582	 	3.91731262207
6.13	0.333389282227	 	3.92219543457
6.135	0.242370605469	 	3.92456054688
6.14	0.143951416016	 	3.92822265625
6.145	0.0784149169922	 	3.935546875
6.15	0.0334777832031	 	3.93913269043
6.155	-0.0163421630859	 	3.94157409668
6.16	-0.06005859375	 	3.9476776123
6.165	-0.0904235839844	 	3.95378112793
6.17	-0.106216430664	 	3.95614624023
6.175	-0.132919311523	 	3.95980834961
6.18	-0.149932861328	 	3.96469116211
6.185	-0.162063598633	 	3.96591186523
6.19	-0.170608520508	 	3.97071838379
6.195	-0.168167114258	 	3.97804260254
6.2	-0.152374267578	 	3.98048400879
6.205	-0.119567871094	 	3.98170471191
6.21	-0.123229980469	 	3.98536682129
6.215	-0.122009277344	 	3.99627685547
6.22	-0.100112915039	 	3.99993896484
6.225	-0.0782928466797	 	4.00238037109
6.23	-0.0746307373047	 	4.00718688965
6.235	-0.0770721435547	 	4.01206970215
6.24	-0.0721893310547	 	4.01695251465
6.245	-0.0393829345703	 	4.01817321777
6.25	-0.0370178222656	 	4.02297973633
6.255	-0.0685272216797	 	4.02542114258
6.26	-0.0673828125	 	4.02908325195
6.265	-0.0333557128906	 	4.03633117676
6.27	-0.0333557128906	 	4.03999328613
6.275	-0.0126800537109	 	4.04365539551
6.28	-0.0139007568359	 	4.04731750488
6.285	-0.0163421630859	 	4.05212402344
6.29	-0.0345764160156	 	4.06066894531
6.295	-0.056396484375	 	4.06555175781
6.3	-0.0721893310547	 	4.07035827637
6.305	-0.149932861328	 	4.07524108887
6.31	-0.188766479492	 	4.07768249512
6.315	-0.217910766602	 	4.08493041992
6.32	-0.222793579102	 	4.0885925293
6.325	-0.219131469727	 	4.09225463867
6.33	-0.221572875977	 	4.09469604492
6.335	-0.216690063477	 	4.09591674805
6.34	-0.198532104492	 	4.09950256348
6.345	-0.181518554688	 	4.1007232666
6.35	-0.182739257813	 	4.10438537598
6.355	-0.170608520508	 	4.10438537598
6.36	-0.170608520508	 	4.10682678223
6.365	-0.213104248047	 	4.11170959473
6.37	-0.290771484375	 	4.11407470703
6.375	-0.318771362305	 	4.11651611328
6.38	-0.244689941406	 	4.11773681641
6.385	-0.0345764160156	 	4.11773681641
6.39	0.40022277832	 	4.11773681641
6.395	0.952819824219	 	4.11651611328
6.4	1.24060058594	 	4.11773681641
6.405	1.02690124512	 	4.12261962891
6.41	0.596984863281	 	4.12628173828
6.415	0.119689941406	 	4.13230895996
6.42	-0.139022827148	 	4.13719177246
6.425	-0.204559326172	 	4.14085388184
6.43	-0.214324951172	 	4.14207458496
6.435	-0.221572875977	 	4.14451599121
6.44	-0.211883544922	 	4.14573669434
6.445	-0.213104248047	 	4.14932250977
6.45	-0.194869995117	 	4.15298461914
6.455	-0.185180664063	 	4.15542602539
6.46	-0.176635742188	 	4.15664672852
6.465	-0.168167114258	 	4.16030883789
6.47	-0.152374267578	 	4.1626739502
6.475	-0.132919311523	 	4.16389465332
6.48	-0.0940856933594	 	4.16633605957
6.485	-0.0576171875	 	4.16877746582
6.49	-0.0479278564453	 	4.16999816895
6.495	0.00311279296875	 	4.1724395752
6.5	0.0456085205078	 	4.17366027832
6.505	0.0285949707031	 	4.17846679688
6.51	0.0128021240234	 	4.18090820313
6.515	0.00669860839844	 	4.1845703125
6.52	0.0395050048828	 	4.18579101563
6.525	0.0735321044922	 	4.18823242188
6.53	0.110000610352	 	4.189453125
6.535	0.152496337891	 	4.19189453125
6.54	0.17919921875	 	4.19189453125
6.545	0.198654174805	 	4.19425964355
6.55	0.209564208984	 	4.1967010498
6.555	0.221694946289	 	4.19914245605
6.56	0.218032836914	 	4.19792175293
6.565	0.247177124023	 	4.2015838623
6.57	0.255722045898	 	4.2064666748
6.575	0.228942871094	 	4.20890808105
6.58	0.209564208984	 	4.20890808105
6.585	0.16096496582	 	4.20768737793
6.59	0.0638427734375	 	4.21493530273
6.595	0.0359191894531	 	4.21615600586
6.6	0.0298156738281	 	4.21859741211
6.605	0.0224914550781	 	4.22225952148
6.61	0.00189208984375	 	4.22348022461
6.615	0.0164642333984	 	4.22584533691
6.62	0.00311279296875	 	4.22828674316
6.625	0.00791931152344	 	4.22828674316
6.63	0.00189208984375	 	4.23316955566
6.635	-0.0163421630859	 	4.23194885254
6.64	-0.0163421630859	 	4.23683166504
6.645	-0.0467071533203	 	4.23683166504
6.65	-0.0393829345703	 	4.23805236816
6.655	-0.0430450439453	 	4.23927307129
6.66	-0.0491485595703	 	4.24049377441
6.665	-0.00543212890625	 	4.24285888672
6.67	0.0589599609375	 	4.24407958984
6.675	0.0965728759766	 	4.24285888672
6.68	0.0784149169922	 	4.24774169922
6.685	0.0456085205078	 	4.24774169922
6.69	0.0577392578125	 	4.24896240234
6.695	0.0820007324219	 	4.25140380859
6.7	0.0759735107422	 	4.25140380859
6.705	0.0759735107422	 	4.25628662109
6.71	0.0674285888672	 	4.25750732422
6.715	0.0589599609375	 	4.26231384277
6.72	0.116027832031	 	4.26109313965
6.725	0.112365722656	 	4.26109313965
6.73	-0.00177001953125	 	4.26231384277
6.735	-0.0758514404297	 	4.26597595215
6.74	-0.177856445313	 	4.26719665527
6.745	-0.224014282227	 	4.26963806152
6.75	-0.233703613281	 	4.27207946777
6.755	-0.248275756836	 	4.27207946777
6.76	-0.259262084961	 	4.27207946777
6.765	-0.262847900391	 	4.2733001709
6.77	-0.277420043945	 	4.27688598633
6.775	-0.271392822266	 	4.27688598633
6.78	-0.237365722656	 	4.27688598633
6.785	-0.230117797852	 	4.27688598633
6.79	-0.224014282227	 	4.2805480957
6.795	-0.224014282227	 	4.28176879883
6.8	-0.27619934082	 	4.28176879883
6.805	-0.319915771484	 	4.28298950195
6.81	-0.31510925293	 	4.28421020508
6.815	-0.199752807617	 	4.28176879883
6.82	-0.056396484375	 	4.28298950195
6.825	0.339492797852	 	4.28176879883
6.83	0.797332763672	 	4.27810668945
6.835	0.850738525391	 	4.2805480957
6.84	0.611557006836	 	4.28298950195
6.845	0.237487792969	 	4.28665161133
6.85	-0.0235900878906	 	4.28909301758
6.855	-0.180297851563	 	4.29023742676
6.86	-0.247055053711	 	4.29267883301
6.865	-0.272613525391	 	4.29634094238
6.87	-0.253158569336	 	4.29756164551
6.875	-0.249496459961	 	4.29512023926
6.88	-0.266510009766	 	4.29634094238
6.885	-0.267730712891	 	4.30000305176
6.89	-0.28352355957	 	4.30122375488
6.895	-0.274978637695	 	4.30000305176
6.9	-0.261627197266	 	4.30244445801
6.905	-0.228897094727	 	4.30244445801
6.91	-0.194869995117	 	4.30122375488
6.915	-0.192428588867	 	4.30603027344
6.92	-0.174194335938	 	4.30488586426
6.925	-0.170608520508	 	4.30244445801
6.93	-0.162063598633	 	4.30488586426
6.935	-0.131698608398	 	4.30488586426
6.94	-0.106216430664	 	4.30603027344
6.945	-0.113464355469	 	4.30847167969
6.95	-0.0892028808594	 	4.30847167969
6.955	-0.0843200683594	 	4.30847167969
6.96	-0.0940856933594	 	4.30847167969
6.965	-0.104995727539	 	4.31091308594
6.97	-0.0721893310547	 	4.31091308594
6.975	-0.0491485595703	 	4.30969238281
6.98	-0.0357971191406	 	4.30969238281
6.985	0.0140228271484	 	4.31213378906
6.99	0.0468292236328	 	4.31213378906
6.995	0.0710906982422	 	4.31091308594
7	0.0747528076172	 	4.30969238281
7.005	0.0905456542969	 	4.31091308594
7.01	0.105117797852	 	4.31213378906
7.015	0.119689941406	 	4.31213378906
7.02	0.151275634766	 	4.31335449219
7.025	0.135482788086	 	4.31457519531
7.03	0.16828918457	 	4.31213378906
7.035	0.151275634766	 	4.31457519531
7.04	0.0953521728516	 	4.31457519531
7.045	-0.00543212890625	 	4.31579589844
7.05	0.00669860839844	 	4.32067871094
7.055	0.0334777832031	 	4.31823730469
7.06	0.0419464111328	 	4.31701660156
7.065	-0.0200042724609	 	4.31823730469
7.07	-0.0381622314453	 	4.31945800781
7.075	-0.00901794433594	 	4.31823730469
7.08	-0.00299072265625	 	4.31945800781
7.085	0.00311279296875	 	4.31945800781
7.09	0.0152435302734	 	4.32067871094
7.095	0.0468292236328	 	4.32067871094
7.1	0.0662078857422	 	4.31945800781
7.105	0.0261535644531	 	4.32067871094
7.11	0.0103607177734	 	4.32304382324
7.115	0.0540771484375	 	4.32426452637
7.12	0.0868835449219	 	4.32182312012
7.125	0.107559204102	 	4.32182312012
7.13	0.0917663574219	 	4.32304382324
7.135	0.0662078857422	 	4.32426452637
7.14	0.0577392578125	 	4.32426452637
7.145	0.0189056396484	 	4.32548522949
7.15	-0.0321350097656	 	4.32304382324
7.155	-0.106216430664	 	4.32304382324
7.16	-0.160842895508	 	4.32548522949
7.165	-0.199752807617	 	4.33036804199
7.17	-0.225234985352	 	4.32670593262
7.175	-0.242248535156	 	4.32548522949
7.18	-0.250717163086	 	4.32426452637
7.185	-0.244689941406	 	4.32670593262
7.19	-0.251937866211	 	4.32548522949
7.195	-0.247055053711	 	4.32548522949
7.2	-0.228897094727	 	4.32182312012
7.205	-0.216690063477	 	4.32182312012
7.21	-0.228897094727	 	4.32067871094
7.215	-0.242248535156	 	4.32067871094
7.22	-0.27619934082	 	4.31823730469
7.225	-0.334487915039	 	4.31579589844
7.23	-0.351501464844	 	4.31579589844
7.235	-0.2919921875	 	4.31457519531
7.24	-0.164505004883	 	4.30969238281
7.245	0.16943359375	 	4.30488586426
7.25	0.740264892578	 	4.30000305176
7.255	0.913909912109	 	4.29512023926
7.26	0.654052734375	 	4.29634094238
7.265	0.315231323242	 	4.30000305176
7.27	0.0298156738281	 	4.30122375488
7.275	-0.139022827148	 	4.29878234863
7.28	-0.191207885742	 	4.29634094238
7.285	-0.186325073242	 	4.29389953613
7.29	-0.171752929688	 	4.29145812988
7.295	-0.181518554688	 	4.28665161133
7.3	-0.185180664063	 	4.2854309082
7.305	-0.172973632813	 	4.28298950195
7.31	-0.165725708008	 	4.28176879883
7.315	-0.154815673828	 	4.27932739258
7.32	-0.145050048828	 	4.2756652832
7.325	-0.135360717773	 	4.27207946777
7.33	-0.101333618164	 	4.2684173584
7.335	-0.0807342529297	 	4.26597595215
7.34	-0.0782928466797	 	4.26475524902
7.345	-0.101333618164	 	4.26475524902
7.35	-0.0965270996094	 	4.26231384277
7.355	-0.06494140625	 	4.2586517334
7.36	-0.0235900878906	 	4.25628662109
7.365	-0.00543212890625	 	4.25628662109
7.37	-0.0187835693359	 	4.25506591797
7.375	-0.00054931640625	 	4.25140380859
7.38	0.0189056396484	 	4.25018310547
7.385	0.0528564453125	 	4.24774169922
7.39	0.0807800292969	 	4.24530029297
7.395	0.110000610352	 	4.24049377441
7.4	0.142730712891	 	4.23805236816
7.405	0.157302856445	 	4.23194885254
7.41	0.186447143555	 	4.23194885254
7.415	0.207122802734	 	4.22828674316
7.42	0.249618530273	 	4.22470092773
7.425	0.253280639648	 	4.22225952148
7.43	0.245956420898	 	4.22103881836
7.435	0.230163574219	 	4.21615600586
7.44	0.19743347168	 	4.21615600586
7.445	0.122131347656	 	4.21249389648
7.45	0.0977935791016	 	4.20890808105
7.455	0.0735321044922	 	4.20768737793
7.46	0.0626220703125	 	4.20280456543
7.465	0.0334777832031	 	4.2015838623
7.47	0.00914001464844	 	4.20402526855
7.475	-0.00054931640625	 	4.2015838623
7.48	-0.00421142578125	 	4.1967010498
7.485	-0.00421142578125	 	4.19311523438
7.49	-0.0163421630859	 	4.18823242188
7.495	0.00669860839844	 	4.1845703125
7.5	0.0395050048828	 	4.1796875
7.505	0.0614013671875	 	4.17846679688
7.51	0.105117797852	 	4.17610168457
7.515	0.136703491211	 	4.16877746582
7.52	0.150054931641	 	4.16511535645
7.525	0.145172119141	 	4.16152954102
7.53	0.146392822266	 	4.15786743164
7.535	0.122131347656	 	4.15420532227
7.54	0.0856628417969	 	4.15298461914
7.545	0.0723114013672	 	4.15054321289
7.55	0.0917663574219	 	4.14810180664
7.555	0.117248535156	 	4.14688110352
7.56	0.0868835449219	 	4.14329528809
7.565	0.0382843017578	 	4.13963317871
7.57	-0.0235900878906	 	4.13963317871
7.575	-0.101333618164	 	4.13963317871
7.58	-0.160842895508	 	4.13475036621
7.585	-0.214324951172	 	4.13475036621
7.59	-0.261627197266	 	4.13597106934
7.595	-0.277420043945	 	4.13597106934
7.6	-0.267730712891	 	4.13108825684
7.605	-0.268951416016	 	4.13108825684
7.61	-0.277420043945	 	4.12994384766
7.615	-0.241027832031	 	4.12750244141
7.62	-0.197311401367	 	4.12628173828
7.625	-0.193649291992	 	4.12139892578
7.63	-0.194869995117	 	4.11529541016
7.635	-0.213104248047	 	4.11293029785
7.64	-0.290771484375	 	4.11170959473
7.645	-0.390411376953	 	4.10804748535
7.65	-0.387969970703	 	4.10682678223
7.655	-0.265289306641	 	4.10194396973
7.66	-0.0235900878906	 	4.09591674805
7.665	0.487655639648	 	4.08981323242
7.67	1.11067199707	 	4.08134460449
7.675	1.30865478516	 	4.07646179199
7.68	1.02926635742	 	4.07768249512
7.685	0.514358520508	 	4.08134460449
7.69	0.0334777832031	 	4.08012390137
7.695	-0.130477905273	 	4.07646179199
7.7	-0.170608520508	 	4.07768249512
7.705	-0.198532104492	 	4.07279968262
7.71	-0.247055053711	 	4.07035827637
7.715	-0.262847900391	 	4.06913757324
7.72	-0.251937866211	 	4.06433105469
7.725	-0.233703613281	 	4.06311035156
7.73	-0.198532104492	 	4.06311035156
7.735	-0.168167114258	 	4.05822753906
7.74	-0.170608520508	 	4.05822753906
7.745	-0.168167114258	 	4.05090332031
7.75	-0.149932861328	 	4.04975891113
7.755	-0.111099243164	 	4.04609680176
7.76	-0.0770721435547	 	4.04121398926
7.765	-0.0467071533203	 	4.03274536133
7.77	-0.0430450439453	 	4.03274536133
7.775	-0.0296936035156	 	4.03030395508
7.78	-0.00421142578125	 	4.03030395508
7.785	0.0201263427734	 	4.02908325195
7.79	0.0492706298828	 	4.02786254883
7.795	0.0662078857422	 	4.02786254883
7.8	0.0796356201172	 	4.02908325195
7.805	0.0674285888672	 	4.02908325195
7.81	0.107559204102	 	4.0266418457
7.815	0.182861328125	 	4.02297973633
7.82	0.212005615234	 	4.02420043945
7.825	0.212005615234	 	4.02420043945
7.83	0.18408203125	 	4.02420043945
7.835	0.219253540039	 	4.02542114258
7.84	0.245956420898	 	4.02297973633
7.845	0.260528564453	 	4.02297973633
7.85	0.255722045898	 	4.02420043945
7.855	0.226577758789	 	4.0217590332
7.86	0.188888549805	 	4.02297973633
7.865	0.143951416016	 	4.02420043945
7.87	0.0929870605469	 	4.02297973633
7.875	0.0771942138672	 	4.02297973633
7.88	0.0674285888672	 	4.02297973633
7.885	0.0868835449219	 	4.02297973633
7.89	0.0807800292969	 	4.0217590332
7.895	0.0650634765625	 	4.02297973633
7.9	0.0395050048828	 	4.0217590332
7.905	0.0201263427734	 	4.02297973633
7.91	0.0249328613281	 	4.02053833008
7.915	0.0480499267578	 	4.01931762695
7.92	0.0528564453125	 	4.01931762695
7.925	0.0917663574219	 	4.02053833008
7.93	0.108779907227	 	4.01695251465
7.935	0.118469238281	 	4.01695251465
7.94	0.122131347656	 	4.01817321777
7.945	0.125717163086	 	4.01931762695
7.95	0.148834228516	 	4.01931762695
7.955	0.135482788086	 	4.01695251465
7.96	0.0965728759766	 	4.01695251465
7.965	0.0784149169922	 	4.01573181152
7.97	0.0905456542969	 	4.01695251465
7.975	0.106338500977	 	4.01695251465
7.98	0.0977935791016	 	4.0145111084
7.985	0.131820678711	 	4.0145111084
7.99	0.113586425781	 	4.0145111084
7.995	0.0540771484375	 	4.01329040527
8	-0.0442657470703	 	4.01329040527
8.005	-0.120788574219	 	4.0145111084
8.01	-0.156036376953	 	4.01329040527
8.015	-0.160842895508	 	4.0145111084
8.02	-0.183959960938	 	4.0145111084
8.025	-0.200897216797	 	4.01573181152
8.03	-0.205780029297	 	4.0145111084
8.035	-0.204559326172	 	4.0145111084
8.04	-0.189987182617	 	4.0145111084
8.045	-0.176635742188	 	4.0145111084
8.05	-0.164505004883	 	4.01329040527
8.055	-0.153594970703	 	4.01084899902
8.06	-0.163284301758	 	4.01084899902
8.065	-0.248275756836	 	4.0145111084
8.07	-0.324798583984	 	4.01329040527
8.075	-0.300537109375	 	4.01329040527
8.08	-0.157180786133	 	4.00840759277
8.085	0.146392822266	 	4.00596618652
8.09	0.688003540039	 	4.00238037109
8.095	1.26852416992	 	3.99871826172
8.1	1.31224060059	 	3.99627685547
8.105	0.929702758789	 	3.99871826172
8.11	0.390533447266	 	4.00238037109
8.115	-0.0576171875	 	4.0047454834
8.12	-0.193649291992	 	4.00840759277
8.125	-0.214324951172	 	4.00718688965
8.13	-0.211883544922	 	4.00352478027
8.135	-0.215545654297	 	4.00352478027
8.14	-0.198532104492	 	4.00238037109
8.145	-0.191207885742	 	4.00238037109
8.15	-0.187545776367	 	4.00352478027
8.155	-0.189987182617	 	3.99993896484
8.16	-0.160842895508	 	3.99993896484
8.165	-0.149932861328	 	3.99993896484
8.17	-0.132919311523	 	3.99871826172
8.175	-0.119567871094	 	3.99749755859
8.18	-0.0867614746094	 	3.99627685547
8.185	-0.06494140625	 	3.99505615234
8.19	-0.0479278564453	 	3.99505615234
8.195	-0.0345764160156	 	3.99505615234
8.2	-0.00543212890625	 	3.99383544922
8.205	0.0237121582031	 	3.99139404297
8.21	0.0565185546875	 	3.99261474609
8.215	0.0674285888672	 	3.99383544922
8.22	0.0917663574219	 	3.99261474609
8.225	0.113586425781	 	3.99261474609
8.23	0.15608215332	 	3.99383544922
8.235	0.177978515625	 	3.99383544922
8.24	0.202239990234	 	3.99505615234
8.245	0.230163574219	 	3.99505615234
8.25	0.264190673828	 	3.99383544922
8.255	0.267852783203	 	3.99383544922
8.26	0.281204223633	 	3.99261474609
8.265	0.269073486328	 	3.99261474609
8.27	0.238708496094	 	3.99505615234
8.275	0.227798461914	 	3.99383544922
8.28	0.17919921875	 	3.99505615234
8.285	0.134262084961	 	3.99505615234
8.29	0.0905456542969	 	3.99383544922
8.295	0.0735321044922	 	3.99505615234
8.3	0.0577392578125	 	3.99749755859
8.305	0.0395050048828	 	3.99749755859
8.31	0.0334777832031	 	3.99749755859
8.315	0.0189056396484	 	3.99871826172
8.32	0.00433349609375	 	3.99993896484
8.325	-0.0126800537109	 	3.99993896484
8.33	-0.0163421630859	 	3.99871826172
8.335	0.00914001464844	 	4.00115966797
8.34	0.0334777832031	 	4.00115966797
8.345	0.0370635986328	 	4.00238037109
8.35	0.0115814208984	 	4.00352478027
8.355	0.0285949707031	 	4.00352478027
8.36	0.0674285888672	 	4.0047454834
8.365	0.0784149169922	 	4.00840759277
8.37	0.0528564453125	 	4.00840759277
8.375	0.0189056396484	 	4.00840759277
8.38	0.00555419921875	 	4.00840759277
8.385	0.00669860839844	 	4.00840759277
8.39	-0.00177001953125	 	4.01206970215
8.395	-0.00543212890625	 	4.0145111084
8.4	0.00067138671875	 	4.01329040527
8.405	-0.0333557128906	 	4.0145111084
8.41	-0.06005859375	 	4.0145111084
8.415	-0.0916442871094	 	4.01931762695
8.42	-0.146270751953	 	4.01931762695
8.425	-0.188766479492	 	4.01695251465
8.43	-0.217910766602	 	4.01817321777
8.435	-0.242248535156	 	4.01931762695
8.44	-0.266510009766	 	4.02053833008
8.445	-0.271392822266	 	4.02420043945
8.45	-0.260406494141	 	4.02297973633
8.455	-0.264068603516	 	4.02297973633
8.46	-0.264068603516	 	4.02420043945
8.465	-0.261627197266	 	4.0266418457
8.47	-0.251937866211	 	4.02786254883
8.475	-0.253158569336	 	4.03030395508
8.48	-0.27864074707	 	4.02908325195
8.485	-0.360046386719	 	4.03030395508
8.49	-0.425582885742	 	4.03274536133
8.495	-0.389190673828	 	4.03633117676
8.5	-0.247055053711	 	4.03396606445
8.505	-0.00665283203125	 	4.0315246582
8.51	0.535034179688	 	4.02908325195
8.515	0.991653442383	 	4.02542114258
8.52	0.928482055664	 	4.0266418457
8.525	0.564178466797	 	4.03396606445
8.53	0.0881042480469	 	4.03755187988
8.535	-0.189987182617	 	4.03999328613
8.54	-0.274978637695	 	4.04365539551
8.545	-0.28840637207	 	4.04609680176
8.55	-0.282302856445	 	4.04609680176
8.555	-0.29443359375	 	4.04487609863
8.56	-0.31022644043	 	4.04853820801
8.565	-0.298095703125	 	4.04731750488
8.57	-0.267730712891	 	4.04731750488
8.575	-0.253158569336	 	4.04731750488
8.58	-0.236145019531	 	4.04853820801
8.585	-0.228897094727	 	4.04853820801
8.59	-0.213104248047	 	4.04853820801
8.595	-0.188766479492	 	4.04975891113
8.6	-0.156036376953	 	4.04975891113
8.605	-0.143829345703	 	4.04975891113
8.61	-0.149932861328	 	4.05212402344
8.615	-0.143829345703	 	4.05334472656
8.62	-0.115905761719	 	4.06066894531
8.625	-0.107437133789	 	4.06066894531
8.63	-0.113464355469	 	4.06311035156
8.635	-0.0843200683594	 	4.06433105469
8.64	-0.0625	 	4.06791687012
8.645	-0.061279296875	 	4.06791687012
8.65	-0.0467071533203	 	4.07279968262
8.655	-0.0126800537109	 	4.07279968262
8.66	0.0189056396484	 	4.07402038574
8.665	0.0359191894531	 	4.07768249512
8.67	0.0382843017578	 	4.07768249512
8.675	0.0565185546875	 	4.07890319824
8.68	0.0589599609375	 	4.08012390137
8.685	0.0723114013672	 	4.08248901367
8.69	0.0298156738281	 	4.08248901367
8.695	0.0310363769531	 	4.08493041992
8.7	0.00914001464844	 	4.08737182617
8.705	-0.0370178222656	 	4.08981323242
8.71	-0.0721893310547	 	4.09103393555
8.715	-0.0721893310547	 	4.09225463867
8.72	-0.0904235839844	 	4.09713745117
8.725	-0.0988922119141	 	4.09713745117
8.73	-0.0940856933594	 	4.09828186035
8.735	-0.0770721435547	 	4.10194396973
8.74	-0.0830993652344	 	4.10194396973
8.745	-0.0928649902344	 	4.10438537598
8.75	-0.0904235839844	 	4.10682678223
8.755	-0.0770721435547	 	4.10682678223
8.76	-0.0709686279297	 	4.1056060791
8.765	-0.0770721435547	 	4.10682678223
8.77	-0.0418243408203	 	4.10682678223
8.775	-0.0333557128906	 	4.10682678223
8.78	-0.00543212890625	 	4.10926818848
8.785	0.00189208984375	 	4.11170959473
8.79	-0.00299072265625	 	4.11407470703
8.795	-0.0126800537109	 	4.11529541016
8.8	-0.0284729003906	 	4.11651611328
8.805	-0.0381622314453	 	4.11773681641
8.81	-0.0370178222656	 	4.12139892578
8.815	-0.0284729003906	 	4.12261962891
8.82	-0.0381622314453	 	4.12261962891
8.825	-0.0321350097656	 	4.12506103516
8.83	-0.0697479248047	 	4.12506103516
8.835	-0.120788574219	 	4.12628173828
8.84	-0.170608520508	 	4.12994384766
8.845	-0.216690063477	 	4.13230895996
8.85	-0.253158569336	 	4.13475036621
8.855	-0.284744262695	 	4.13597106934
8.86	-0.306564331055	 	4.13719177246
8.865	-0.31510925293	 	4.13963317871
8.87	-0.31755065918	 	4.13963317871
8.875	-0.30534362793	 	4.14085388184
8.88	-0.2919921875	 	4.14451599121
8.885	-0.289627075195	 	4.14688110352
8.89	-0.282302856445	 	4.14932250977
8.895	-0.264068603516	 	4.14688110352
8.9	-0.274978637695	 	4.14932250977
8.905	-0.360046386719	 	4.15298461914
8.91	-0.432907104492	 	4.15664672852
8.915	-0.389190673828	 	4.15908813477
8.92	-0.254379272461	 	4.15908813477
8.925	-0.0248107910156	 	4.15908813477
8.93	0.435470581055	 	4.15908813477
8.935	0.944274902344	 	4.15664672852
8.94	0.947937011719	 	4.15786743164
8.945	0.654052734375	 	4.16030883789
8.95	0.218032836914	 	4.16633605957
8.955	-0.113464355469	 	4.16999816895
8.96	-0.241027832031	 	4.17488098145
8.965	-0.28596496582	 	4.1773223877
8.97	-0.295654296875	 	4.17846679688
8.975	-0.284744262695	 	4.1796875
8.98	-0.258041381836	 	4.1845703125
8.985	-0.237365722656	 	4.18334960938
8.99	-0.233703613281	 	4.18334960938
8.995	-0.231262207031	 	4.18579101563
9	-0.225234985352	 	4.18701171875
9.005	-0.222793579102	 	4.189453125
9.01	-0.205780029297	 	4.189453125
9.015	-0.166946411133	 	4.189453125
9.02	-0.115905761719	 	4.189453125
9.025	-0.0965270996094	 	4.19067382813
9.03	-0.0988922119141	 	4.19067382813
9.035	-0.0976715087891	 	4.19311523438
9.04	-0.061279296875	 	4.19311523438
9.045	-0.0284729003906	 	4.19548034668
9.05	-0.0151214599609	 	4.19914245605
9.055	0.00311279296875	 	4.2015838623
9.06	0.00433349609375	 	4.2064666748
9.065	0.0224914550781	 	4.20768737793
9.07	0.0431671142578	 	4.20768737793
9.075	0.108779907227	 	4.20890808105
9.08	0.141510009766	 	4.21127319336
9.085	0.135482788086	 	4.21249389648
9.09	0.180419921875	 	4.21737670898
9.095	0.198654174805	 	4.21737670898
9.1	0.208343505859	 	4.21859741211
9.105	0.219253540039	 	4.22348022461
9.11	0.19010925293	 	4.22584533691
9.115	0.207122802734	 	4.22706604004
9.12	0.248397827148	 	4.22584533691
9.125	0.214370727539	 	4.23194885254
9.13	0.175537109375	 	4.23194885254
9.135	0.150054931641	 	4.23316955566
9.14	0.137924194336	 	4.23439025879
9.145	0.136703491211	 	4.23561096191
9.15	0.116027832031	 	4.23683166504
9.155	0.157302856445	 	4.23683166504
9.16	0.141510009766	 	4.23683166504
9.165	0.0917663574219	 	4.24049377441
9.17	0.0784149169922	 	4.24163818359
9.175	0.0820007324219	 	4.24285888672
9.18	0.107559204102	 	4.24163818359
9.185	0.152496337891	 	4.24285888672
9.19	0.19499206543	 	4.24285888672
9.195	0.245956420898	 	4.24407958984
9.2	0.265411376953	 	4.24774169922
9.205	0.209564208984	 	4.24407958984
9.21	0.212005615234	 	4.24407958984
9.215	0.228942871094	 	4.24652099609
9.22	0.225357055664	 	4.25018310547
9.225	0.18766784668	 	4.25018310547
9.23	0.18766784668	 	4.25262451172
9.235	0.198654174805	 	4.25262451172
9.24	0.145172119141	 	4.25628662109
9.245	0.117248535156	 	4.25628662109
9.25	0.0698699951172	 	4.25628662109
9.255	0.00791931152344	 	4.25987243652
9.26	-0.0370178222656	 	4.26109313965
9.265	-0.102554321289	 	4.2635345459
9.27	-0.164505004883	 	4.26597595215
9.275	-0.214324951172	 	4.26719665527
9.28	-0.210662841797	 	4.26963806152
9.285	-0.227676391602	 	4.27085876465
9.29	-0.239807128906	 	4.27207946777
9.295	-0.237365722656	 	4.27207946777
9.3	-0.219131469727	 	4.2733001709
9.305	-0.197311401367	 	4.2733001709
9.31	-0.199752807617	 	4.2756652832
9.315	-0.191207885742	 	4.2756652832
9.32	-0.217910766602	 	4.27688598633
9.325	-0.316329956055	 	4.28176879883
9.33	-0.346694946289	 	4.28176879883
9.335	-0.274978637695	 	4.28421020508
9.34	-0.128036499023	 	4.28176879883
9.345	0.162185668945	 	4.2805480957
9.35	0.679534912109	 	4.2756652832
9.355	1.15194702148	 	4.27444458008
9.36	1.08999633789	 	4.27688598633
9.365	0.735382080078	 	4.28176879883
9.37	0.289672851563	 	4.2854309082
9.375	-0.0892028808594	 	4.29267883301
9.38	-0.210662841797	 	4.29512023926
9.385	-0.250717163086	 	4.29756164551
9.39	-0.247055053711	 	4.30000305176
9.395	-0.237365722656	 	4.30122375488
9.4	-0.255599975586	 	4.30366516113
9.405	-0.254379272461	 	4.30488586426
9.41	-0.250717163086	 	4.30725097656
9.415	-0.233703613281	 	4.30725097656
9.42	-0.234924316406	 	4.30603027344
9.425	-0.224014282227	 	4.30603027344
9.43	-0.181518554688	 	4.30603027344
9.435	-0.152374267578	 	4.30969238281
9.44	-0.152374267578	 	4.30847167969
9.445	-0.142608642578	 	4.30969238281
9.45	-0.142608642578	 	4.31213378906
9.455	-0.119567871094	 	4.31091308594
9.46	-0.0940856933594	 	4.31213378906
9.465	-0.0904235839844	 	4.31457519531
9.47	-0.0795135498047	 	4.31091308594
9.475	-0.06494140625	 	4.31213378906
9.48	-0.0625	 	4.31335449219
9.485	-0.0819549560547	 	4.31457519531
9.49	-0.0819549560547	 	4.31457519531
9.495	-0.0370178222656	 	4.31457519531
9.5	-0.0126800537109	 	4.31579589844
9.505	-0.0163421630859	 	4.31701660156
9.51	-0.0357971191406	 	4.31701660156
9.515	-0.00665283203125	 	4.31701660156
9.52	0.0419464111328	 	4.31701660156
9.525	0.0212707519531	 	4.31823730469
9.53	0.00791931152344	 	4.32067871094
9.535	0.0128021240234	 	4.32067871094
9.54	0.0164642333984	 	4.32067871094
9.545	0.0189056396484	 	4.31945800781
9.55	-0.0163421630859	 	4.32182312012
9.555	-0.0442657470703	 	4.32067871094
9.56	-0.0503692626953	 	4.32067871094
9.565	-0.052734375	 	4.31945800781
9.57	-0.0430450439453	 	4.32182312012
9.575	-0.0260314941406	 	4.32067871094
9.58	-0.061279296875	 	4.32304382324
9.585	-0.06494140625	 	4.32426452637
9.59	-0.0734100341797	 	4.32182312012
9.595	-0.100112915039	 	4.32548522949
9.6	-0.0904235839844	 	4.32548522949
9.605	-0.0625	 	4.32548522949
9.61	-0.0685272216797	 	4.32548522949
9.615	0.0359191894531	 	4.32426452637
9.62	0.0237121582031	 	4.32548522949
9.625	-0.0151214599609	 	4.32548522949
9.63	-0.0248107910156	 	4.32548522949
9.635	-0.0114593505859	 	4.32548522949
9.64	-0.0151214599609	 	4.32670593262
9.645	0.0796356201172	 	4.32548522949
9.65	0.0674285888672	 	4.32426452637
9.655	-0.0224456787109	 	4.32548522949
9.66	-0.00901794433594	 	4.32792663574
9.665	-0.0418243408203	 	4.32914733887
9.67	-0.0709686279297	 	4.32792663574
9.675	-0.104995727539	 	4.32792663574
9.68	-0.185180664063	 	4.32914733887
9.685	-0.265289306641	 	4.32914733887
9.69	-0.256820678711	 	4.32914733887
9.695	-0.238586425781	 	4.33158874512
9.7	-0.268951416016	 	4.33036804199
9.705	-0.316329956055	 	4.33280944824
9.71	-0.296875	 	4.32914733887
9.715	-0.270172119141	 	4.33158874512
9.72	-0.233703613281	 	4.33036804199
9.725	-0.168167114258	 	4.33158874512
9.73	-0.120788574219	 	4.33158874512
9.735	-0.187545776367	 	4.33036804199
9.74	-0.247055053711	 	4.32914733887
9.745	-0.316329956055	 	4.33403015137
9.75	-0.395217895508	 	4.33525085449
9.755	-0.385528564453	 	4.33525085449
9.76	-0.277420043945	 	4.33525085449
9.765	-0.146270751953	 	4.33403015137
9.77	0.288452148438	 	4.33036804199
9.775	0.833801269531	 	4.32548522949
9.78	0.811904907227	 	4.32670593262
9.785	0.552047729492	 	4.32670593262
9.79	0.142730712891	 	4.33036804199
9.795	-0.174194335938	 	4.33158874512
9.8	-0.287185668945	 	4.33525085449
9.805	-0.327239990234	 	4.33525085449
9.81	-0.378280639648	 	4.33403015137
9.815	-0.393997192383	 	4.3376159668
9.82	-0.389190673828	 	4.33525085449
9.825	-0.434127807617	 	4.3376159668
9.83	-0.403762817383	 	4.33647155762
9.835	-0.327239990234	 	4.33280944824
9.84	-0.379425048828	 	4.33403015137
9.845	-0.385528564453	 	4.33158874512
9.85	-0.370956420898	 	4.33280944824
9.855	-0.274978637695	 	4.33158874512
9.86	-0.330902099609	 	4.33158874512
9.865	-0.390411376953	 	4.33403015137
9.87	-0.383087158203	 	4.33280944824
9.875	-0.27864074707	 	4.33280944824
9.88	-0.175415039063	 	4.33158874512
9.885	-0.112243652344	 	4.33036804199
9.89	-0.177856445313	 	4.33036804199
9.895	-0.171752929688	 	4.33036804199
9.9	-0.249496459961	 	4.33036804199
9.905	-0.227676391602	 	4.32914733887
9.91	-0.296875	 	4.32914733887
9.915	-0.378280639648	 	4.33036804199
9.92	-0.355163574219	 	4.32792663574
9.925	-0.205780029297	 	4.32792663574
9.93	-0.0503692626953	 	4.32548522949
9.935	-0.0187835693359	 	4.32548522949
9.94	-0.145050048828	 	4.32548522949
9.945	-0.143829345703	 	4.32548522949
9.95	-0.06494140625	 	4.32067871094
9.955	-0.169387817383	 	4.32182312012
9.96	-0.171752929688	 	4.31945800781
9.965	-0.135360717773	 	4.31701660156
9.97	-0.159622192383	 	4.31457519531
9.975	-0.159622192383	 	4.30969238281
9.98	-0.164505004883	 	4.30969238281
9.985	-0.122009277344	 	4.30488586426
9.99	-0.198532104492	 	4.30603027344
9.995	-0.159622192383	 	4.30122375488
10	-0.111099243164	 	4.29756164551
10.005	-0.123229980469	 	4.29389953613
10.01	-0.156036376953	 	4.28787231445
10.015	-0.219131469727	 	4.27810668945
10.02	-0.169387817383	 	4.27444458008
10.025	-0.122009277344	 	4.2684173584
10.03	-0.061279296875	 	4.25628662109
10.035	-0.0515899658203	 	4.25140380859
10.04	-0.0284729003906	 	4.24407958984
10.045	-0.0296936035156	 	4.23805236816
10.05	0.00189208984375	 	4.23072814941
10.055	-0.0430450439453	 	4.22584533691
10.06	-0.0576171875	 	4.21737670898
10.065	-0.0819549560547	 	4.20768737793
10.07	-0.0721893310547	 	4.19914245605
10.075	-0.0879821777344	 	4.19425964355
10.08	-0.102554321289	 	4.18823242188
10.085	-0.126815795898	 	4.18334960938
10.09	-0.0467071533203	 	4.17610168457
10.095	-0.00543212890625	 	4.16999816895
10.1	-0.0988922119141	 	4.16389465332
10.105	-0.196090698242	 	4.16030883789
10.11	-0.256820678711	 	4.15420532227
10.115	-0.27864074707	 	4.14932250977
10.12	-0.31510925293	 	4.14329528809
10.125	-0.347915649414	 	4.14085388184
10.13	-0.375839233398	 	4.13475036621
10.135	-0.355163574219	 	4.13108825684
10.14	-0.316329956055	 	4.12628173828
10.145	-0.323577880859	 	4.12017822266
10.15	-0.316329956055	 	4.11651611328
10.155	-0.324798583984	 	4.10804748535
10.16	-0.321136474609	 	4.10194396973
10.165	-0.345474243164	 	4.09950256348
10.17	-0.353942871094	 	4.09591674805
10.175	-0.449920654297	 	4.09225463867
10.18	-0.454727172852	 	4.08737182617
10.185	-0.379425048828	 	4.08493041992
10.19	-0.199752807617	 	4.07646179199
10.195	0.16096496582	 	4.07279968262
10.2	0.760940551758	 	4.06669616699
10.205	1.24914550781	 	4.05700683594
10.21	1.10823059082	 	4.05334472656
10.215	0.618804931641	 	4.05822753906
10.22	0.0540771484375	 	4.05578613281
10.225	-0.204559326172	 	4.05944824219
10.23	-0.217910766602	 	4.06066894531
10.235	-0.243469238281	 	4.05944824219
10.24	-0.302978515625	 	4.06066894531
10.245	-0.323577880859	 	4.05944824219
10.25	-0.31022644043	 	4.05822753906
10.255	-0.30778503418	 	4.05212402344
10.26	-0.282302856445	 	4.04975891113
10.265	-0.28352355957	 	4.04853820801
10.27	-0.27864074707	 	4.04731750488
10.275	-0.233703613281	 	4.04487609863
10.28	-0.189987182617	 	4.04365539551
10.285	-0.169387817383	 	4.04365539551
10.29	-0.131698608398	 	4.04121398926
10.295	-0.0673828125	 	4.03877258301
10.3	-0.0709686279297	 	4.03511047363
10.305	-0.120788574219	 	4.03755187988
10.31	-0.132919311523	 	4.03633117676
10.315	-0.0430450439453	 	4.03396606445
10.32	0.0201263427734	 	4.0315246582
10.325	0.00555419921875	 	4.0315246582
10.33	-0.00421142578125	 	4.03030395508
10.335	0.151275634766	 	4.02786254883
10.34	0.0662078857422	 	4.0266418457
10.345	0.136703491211	 	4.02420043945
10.35	0.317596435547	 	4.02297973633
10.355	0.355285644531	 	4.02053833008
10.36	0.230163574219	 	4.01817321777
10.365	0.231384277344	 	4.02297973633
10.37	0.256942749023	 	4.02297973633
10.375	0.289672851563	 	4.02420043945
10.38	0.236267089844	 	4.0217590332
10.385	0.331024169922	 	4.01817321777
10.39	0.199798583984	 	4.02053833008
10.395	0.0589599609375	 	4.0217590332
10.4	0.0346984863281	 	4.0217590332
10.405	-0.00665283203125	 	4.02420043945
10.41	0.0516357421875	 	4.0266418457
10.415	0.00914001464844	 	4.02420043945
10.42	0.0224914550781	 	4.02420043945
10.425	0.0881042480469	 	4.02786254883
10.43	0.0201263427734	 	4.02908325195
10.435	-0.0333557128906	 	4.03030395508
10.44	-0.0102386474609	 	4.0315246582
10.445	-0.0212249755859	 	4.03274536133
10.45	0.00914001464844	 	4.03396606445
10.455	0.0807800292969	 	4.03396606445
10.46	0.0128021240234	 	4.03511047363
10.465	-0.0260314941406	 	4.03633117676
10.47	0.0419464111328	 	4.03633117676
10.475	-0.0321350097656	 	4.03511047363
10.48	-0.0235900878906	 	4.03633117676
10.485	-0.0576171875	 	4.03755187988
10.49	-0.0721893310547	 	4.03755187988
10.495	-0.0224456787109	 	4.03755187988
10.5	0.0759735107422	 	4.03633117676
10.505	-0.0126800537109	 	4.03755187988
10.51	-0.00299072265625	 	4.03755187988
10.515	0.0370635986328	 	4.03755187988
10.52	0.130599975586	 	4.03633117676
10.525	0.116027832031	 	4.03877258301
10.53	-0.0187835693359	 	4.03877258301
10.535	0.0419464111328	 	4.03511047363
10.54	0.114807128906	 	4.03396606445
10.545	0.0456085205078	 	4.03274536133
10.55	-0.0370178222656	 	4.03274536133
10.555	-0.142608642578	 	4.0315246582
10.56	-0.216690063477	 	4.03396606445
10.565	-0.222793579102	 	4.02786254883
10.57	-0.221572875977	 	4.02786254883
10.575	-0.243469238281	 	4.0266418457
10.58	-0.228897094727	 	4.02786254883
10.585	-0.232482910156	 	4.02297973633
10.59	-0.233703613281	 	4.01931762695
10.595	-0.210662841797	 	4.00596618652
10.6	-0.200897216797	 	4.00238037109
10.605	-0.194869995117	 	3.99749755859
10.61	-0.192428588867	 	3.99749755859
10.615	-0.202117919922	 	3.99261474609
10.62	-0.231262207031	 	3.98895263672
10.625	-0.256820678711	 	3.98895263672
10.63	-0.158401489258	 	3.98773193359
10.635	0.181640625	 	3.98414611816
10.64	0.63459777832	 	3.97926330566
10.645	1.17620849609	 	3.98048400879
10.65	1.47497558594	 	3.98048400879
10.655	1.1021270752	 	3.98292541504
10.66	0.526489257813	 	3.99017333984
10.665	0.0468292236328	 	3.99749755859
10.67	-0.142608642578	 	4.00115966797
10.675	-0.182739257813	 	4.00718688965
10.68	-0.205780029297	 	4.0096282959
10.685	-0.232482910156	 	4.01084899902
10.69	-0.214324951172	 	4.01329040527
10.695	-0.221572875977	 	4.01206970215
10.7	-0.197311401367	 	4.01329040527
10.705	-0.130477905273	 	4.01329040527
10.71	-0.134140014648	 	4.01329040527
10.715	-0.168167114258	 	4.0145111084
10.72	-0.115905761719	 	4.01329040527
10.725	-0.0673828125	 	4.01329040527
10.73	-0.0673828125	 	4.0145111084
10.735	-0.0151214599609	 	4.0145111084
10.74	-0.00299072265625	 	4.0145111084
10.745	0.00914001464844	 	4.0145111084
10.75	0.0322570800781	 	4.0145111084
10.755	0.0516357421875	 	4.01573181152
10.76	0.117248535156	 	4.01695251465
10.765	0.214370727539	 	4.01817321777
10.77	0.267852783203	 	4.01817321777
10.775	0.315231323242	 	4.02053833008
10.78	0.310348510742	 	4.02053833008
10.785	0.358947753906	 	4.02053833008
10.79	0.399002075195	 	4.02297973633
10.795	0.430587768555	 	4.02420043945
10.8	0.465759277344	 	4.02786254883
10.805	0.465759277344	 	4.0315246582
10.81	0.481552124023	 	4.03030395508
10.815	0.41845703125	 	4.0315246582
10.82	0.361389160156	 	4.03030395508
10.825	0.425704956055	 	4.02786254883
10.83	0.42936706543	 	4.02908325195
10.835	0.463394165039	 	4.03030395508
10.84	0.379547119141	 	4.03030395508
10.845	0.351623535156	 	4.02908325195
10.85	0.331024169922	 	4.02786254883
10.855	0.269073486328	 	4.02786254883
10.86	0.264190673828	 	4.02908325195
10.865	0.345596313477	 	4.02786254883
10.87	0.327362060547	 	4.0266418457
10.875	0.272735595703	 	4.0266418457
10.88	0.237487792969	 	4.02908325195
10.885	0.177978515625	 	4.0266418457
10.89	0.0929870605469	 	4.02542114258
10.895	0.0577392578125	 	4.0266418457
10.9	0.0334777832031	 	4.0266418457
10.905	0.0298156738281	 	4.02786254883
10.91	0.0322570800781	 	4.02786254883
10.915	0.0747528076172	 	4.02908325195
10.92	0.103897094727	 	4.02908325195
10.925	0.0844421386719	 	4.02786254883
10.93	0.0759735107422	 	4.02908325195
10.935	0.112365722656	 	4.02786254883
10.94	0.128158569336	 	4.02908325195
10.945	0.16096496582	 	4.02786254883
10.95	0.124572753906	 	4.02908325195
10.955	0.0784149169922	 	4.03030395508
10.96	0.0224914550781	 	4.02908325195
10.965	0.0468292236328	 	4.02786254883
10.97	0.0516357421875	 	4.02786254883
10.975	0.106338500977	 	4.02786254883
10.98	0.106338500977	 	4.0266418457
10.985	0.0589599609375	 	4.02786254883
10.99	0.0516357421875	 	4.0266418457
10.995	-0.0393829345703	 	4.0266418457
11	-0.124450683594	 	4.02908325195
11.005	-0.213104248047	 	4.02908325195
11.01	-0.27619934082	 	4.02908325195
11.015	-0.284744262695	 	4.02786254883
11.02	-0.216690063477	 	4.02786254883
11.025	-0.199752807617	 	4.02908325195
11.03	-0.185180664063	 	4.02786254883
11.035	-0.185180664063	 	4.02908325195
11.04	-0.199752807617	 	4.02420043945
11.045	-0.102554321289	 	4.02420043945
11.05	-0.0102386474609	 	4.02297973633
11.055	0.0140228271484	 	4.02053833008
11.06	-0.0988922119141	 	4.02053833008
11.065	-0.28108215332	 	4.02420043945
11.07	-0.302978515625	 	4.02420043945
11.075	-0.181518554688	 	4.02297973633
11.08	0.230163574219	 	4.01931762695
11.085	0.739044189453	 	4.0145111084
11.09	1.42156982422	 	4.0096282959
11.095	1.65838623047	 	4.0047454834
11.1	1.33291625977	 	4.00596618652
11.105	0.675872802734	 	4.00718688965
11.11	0.15852355957	 	4.0096282959
11.115	-0.100112915039	 	4.0096282959
11.12	-0.213104248047	 	4.01084899902
11.125	-0.207000732422	 	4.01084899902
11.13	-0.198532104492	 	4.01084899902
11.135	-0.180297851563	 	4.01329040527
11.14	-0.176635742188	 	4.01329040527
11.145	-0.185180664063	 	4.0096282959
11.15	-0.162063598633	 	4.0096282959
11.155	-0.179077148438	 	4.01084899902
11.16	-0.0940856933594	 	4.0096282959
11.165	-0.0467071533203	 	4.0096282959
11.17	-0.0114593505859	 	4.00718688965
11.175	0.0431671142578	 	4.00352478027
11.18	0.113586425781	 	4.00352478027
11.185	0.181640625	 	4.0047454834
11.19	0.130599975586	 	4.00352478027
11.195	0.0674285888672	 	4.0047454834
11.2	0.147613525391	 	4.00718688965
11.205	0.212005615234	 	4.00840759277
11.21	0.266632080078	 	4.0096282959
11.215	0.287307739258	 	4.0096282959
11.22	0.233825683594	 	4.01329040527
11.225	0.266632080078	 	4.0145111084
11.23	0.356506347656	 	4.0145111084
11.235	0.399002075195	 	4.0145111084
11.24	0.389312744141	 	4.01931762695
11.245	0.358947753906	 	4.01931762695
11.25	0.383209228516	 	4.02053833008
11.255	0.375961303711	 	4.02297973633
11.26	0.334609985352	 	4.02542114258
11.265	0.360168457031	 	4.0266418457
11.27	0.358947753906	 	4.0315246582
11.275	0.312789916992	 	4.02786254883
11.28	0.256942749023	 	4.03511047363
11.285	0.162185668945	 	4.03877258301
11.29	0.147613525391	 	4.03877258301
11.295	0.0686492919922	 	4.03755187988
11.3	0.00555419921875	 	4.03755187988
11.305	0.00914001464844	 	4.03877258301
11.31	-0.0260314941406	 	4.03999328613
11.315	-0.0284729003906	 	4.04121398926
11.32	-0.0418243408203	 	4.04121398926
11.325	-0.0721893310547	 	4.03999328613
11.33	-0.0940856933594	 	4.03999328613
11.335	-0.0916442871094	 	4.03877258301
11.34	-0.0988922119141	 	4.03999328613
11.345	-0.106216430664	 	4.04243469238
11.35	-0.107437133789	 	4.04243469238
11.355	-0.101333618164	 	4.03877258301
11.36	-0.112243652344	 	4.04121398926
11.365	-0.114685058594	 	4.04243469238
11.37	-0.112243652344	 	4.04121398926
11.375	-0.172973632813	 	4.04243469238
11.38	-0.163284301758	 	4.03999328613
11.385	-0.0855407714844	 	4.03877258301
11.39	-0.0430450439453	 	4.03755187988
11.395	-0.06494140625	 	4.03999328613
11.4	-0.0795135498047	 	4.03877258301
11.405	-0.0976715087891	 	4.03999328613
11.41	-0.145050048828	 	4.03877258301
11.415	-0.140243530273	 	4.03999328613
11.42	-0.125671386719	 	4.03999328613
11.425	-0.146270751953	 	4.03999328613
11.43	-0.159622192383	 	4.03999328613
11.435	-0.210662841797	 	4.04121398926
11.44	-0.272613525391	 	4.04243469238
11.445	-0.316329956055	 	4.04243469238
11.45	-0.321136474609	 	4.04243469238
11.455	-0.350280761719	 	4.03999328613
11.46	-0.380645751953	 	4.03877258301
11.465	-0.349060058594	 	4.03755187988
11.47	-0.360046386719	 	4.03755187988
11.475	-0.363632202148	 	4.03633117676
11.48	-0.355163574219	 	4.03877258301
11.485	-0.334487915039	 	4.03633117676
11.49	-0.345474243164	 	4.03511047363
11.495	-0.369735717773	 	4.03511047363
11.5	-0.343032836914	 	4.03511047363
11.505	-0.457168579102	 	4.03877258301
11.51	-0.470520019531	 	4.03511047363
11.515	-0.398880004883	 	4.03396606445
11.52	-0.214324951172	 	4.02908325195
11.525	0.148834228516	 	4.02542114258
11.53	0.764526367188	 	4.0217590332
11.535	1.17384338379	 	4.01695251465
11.54	0.918792724609	 	4.01573181152
11.545	0.374740600586	 	4.01817321777
11.55	-0.140243530273	 	4.02053833008
11.555	-0.309005737305	 	4.02297973633
11.56	-0.341812133789	 	4.02053833008
11.565	-0.372177124023	 	4.01817321777
11.57	-0.389190673828	 	4.01931762695
11.575	-0.333343505859	 	4.01817321777
11.58	-0.332122802734	 	4.01695251465
11.585	-0.349060058594	 	4.01931762695
11.59	-0.335708618164	 	4.01573181152
11.595	-0.30419921875	 	4.0145111084
11.6	-0.268951416016	 	4.01206970215
11.605	-0.232482910156	 	4.01206970215
11.61	-0.266510009766	 	4.01206970215
11.615	-0.266510009766	 	4.01329040527
11.62	-0.249496459961	 	4.01329040527
11.625	-0.207000732422	 	4.01329040527
11.63	-0.166946411133	 	4.01084899902
11.635	-0.172973632813	 	4.0145111084
11.64	-0.183959960938	 	4.01695251465
11.645	-0.151153564453	 	4.01817321777
11.65	-0.066162109375	 	4.01695251465
11.655	-0.0576171875	 	4.01931762695
11.66	-0.0224456787109	 	4.01931762695
11.665	0.0784149169922	 	4.01817321777
11.67	0.0492706298828	 	4.01817321777
11.675	0.0577392578125	 	4.01817321777
11.68	0.173095703125	 	4.01573181152
11.685	0.177978515625	 	4.01695251465
11.69	0.19499206543	 	4.01695251465
11.695	0.225357055664	 	4.01817321777
11.7	0.276321411133	 	4.01695251465
11.705	0.352844238281	 	4.01573181152
11.71	0.337051391602	 	4.01931762695
11.715	0.290893554688	 	4.01817321777
11.72	0.214370727539	 	4.01817321777
11.725	0.209564208984	 	4.01817321777
11.73	0.18408203125	 	4.01931762695
11.735	0.0917663574219	 	4.01931762695
11.74	0.0164642333984	 	4.02053833008
11.745	0.0528564453125	 	4.01931762695
11.75	0.0589599609375	 	4.01817321777
11.755	0.110000610352	 	4.01695251465
11.76	0.128158569336	 	4.01817321777
11.765	0.106338500977	 	4.01931762695
11.77	0.106338500977	 	4.01931762695
11.775	0.122131347656	 	4.01817321777
11.78	0.0929870605469	 	4.01817321777
11.785	0.106338500977	 	4.01817321777
11.79	0.0832214355469	 	4.01817321777
11.795	0.0868835449219	 	4.01817321777
11.8	0.107559204102	 	4.02053833008
11.805	0.16943359375	 	4.01931762695
11.81	0.177978515625	 	4.02053833008
11.815	0.19010925293	 	4.01817321777
11.82	0.177978515625	 	4.02297973633
11.825	0.218032836914	 	4.02053833008
11.83	0.16584777832	 	4.01931762695
11.835	0.227798461914	 	4.01817321777
11.84	0.19499206543	 	4.01931762695
11.845	0.139144897461	 	4.02297973633
11.85	0.153717041016	 	4.0217590332
11.855	0.207122802734	 	4.02053833008
11.86	0.218032836914	 	4.0217590332
11.865	0.19010925293	 	4.02297973633
11.87	0.18522644043	 	4.02297973633
11.875	0.0784149169922	 	4.02420043945
11.88	-0.0381622314453	 	4.0266418457
11.885	-0.0819549560547	 	4.02786254883
11.89	-0.112243652344	 	4.02786254883
11.895	-0.149932861328	 	4.02908325195
11.9	-0.176635742188	 	4.02908325195
11.905	-0.222793579102	 	4.02786254883
11.91	-0.227676391602	 	4.02786254883
11.915	-0.226455688477	 	4.02786254883
11.92	-0.217910766602	 	4.0315246582
11.925	-0.237365722656	 	4.03396606445
11.93	-0.222793579102	 	4.03274536133
11.935	-0.188766479492	 	4.0315246582
11.94	-0.185180664063	 	4.03030395508
11.945	-0.306564331055	 	4.03396606445
11.95	-0.372177124023	 	4.03396606445
11.955	-0.339370727539	 	4.03396606445
11.96	-0.146270751953	 	4.03274536133
11.965	0.314010620117	 	4.02786254883
11.97	0.853179931641	 	4.02297973633
11.975	1.29286193848	 	4.02053833008
11.98	1.15194702148	 	4.02053833008
11.985	0.695327758789	 	4.02420043945
11.99	0.0796356201172	 	4.02908325195
11.995	-0.220352172852	 	4.03274536133
12	-0.2919921875	 	4.03274536133
12.005	-0.31510925293	 	4.03396606445
12.01	-0.306564331055	 	4.03396606445
12.015	-0.334487915039	 	4.03511047363
12.02	-0.357604980469	 	4.03755187988
12.025	-0.328460693359	 	4.03511047363
12.03	-0.265289306641	 	4.03511047363
12.035	-0.236145019531	 	4.03755187988
12.04	-0.251937866211	 	4.03633117676
12.045	-0.244689941406	 	4.03755187988
12.05	-0.199752807617	 	4.03511047363
12.055	-0.160842895508	 	4.03274536133
12.06	-0.153594970703	 	4.03396606445
12.065	-0.122009277344	 	4.03633117676
12.07	-0.103775024414	 	4.03755187988
12.075	-0.0721893310547	 	4.03633117676
12.08	-0.0491485595703	 	4.03633117676
12.085	-0.0151214599609	 	4.03755187988
12.09	0.0273742675781	 	4.03877258301
12.095	0.00555419921875	 	4.03877258301
12.1	0.0346984863281	 	4.03755187988
12.105	0.00555419921875	 	4.03511047363
12.11	-0.052734375	 	4.03511047363
12.115	-0.00543212890625	 	4.03274536133
12.12	0.0844421386719	 	4.03274536133
12.125	0.145172119141	 	4.03030395508
12.13	0.175537109375	 	4.02420043945
12.135	0.205902099609	 	4.02420043945
12.14	0.255722045898	 	4.0217590332
12.145	0.203460693359	 	4.01695251465
12.15	0.136703491211	 	4.0145111084
12.155	0.0359191894531	 	4.0145111084
12.16	0.0152435302734	 	4.01329040527
12.165	0.0103607177734	 	4.01206970215
12.17	0.0249328613281	 	4.01329040527
12.175	0.0359191894531	 	4.01206970215
12.18	0.0152435302734	 	4.01084899902
12.185	0.0176849365234	 	4.00840759277
12.19	-0.0139007568359	 	4.00840759277
12.195	-0.0721893310547	 	4.00596618652
12.2	-0.123229980469	 	4.00352478027
12.205	-0.111099243164	 	3.99871826172
12.21	-0.103775024414	 	3.99383544922
12.215	-0.0988922119141	 	3.98895263672
12.22	-0.0685272216797	 	3.98170471191
12.225	-0.100112915039	 	3.97560119629
12.23	-0.112243652344	 	3.97193908691
12.235	-0.0807342529297	 	3.96469116211
12.24	-0.0491485595703	 	3.96224975586
12.245	-0.0734100341797	 	3.96102905273
12.25	-0.0795135498047	 	3.95980834961
12.255	-0.00787353515625	 	3.95858764648
12.26	0.0103607177734	 	3.95736694336
12.265	0.00669860839844	 	3.95614624023
12.27	-0.0139007568359	 	3.95492553711
12.275	-0.0151214599609	 	3.95614624023
12.28	-0.0102386474609	 	3.95614624023
12.285	0.0552978515625	 	3.95736694336
12.29	0.0856628417969	 	3.95858764648
12.295	0.0771942138672	 	3.95980834961
12.3	0.106338500977	 	3.96102905273
12.305	0.0456085205078	 	3.95858764648
12.31	-0.0126800537109	 	3.95858764648
12.315	-0.0357971191406	 	3.95736694336
12.32	-0.0879821777344	 	3.95492553711
12.325	-0.146270751953	 	3.95492553711
12.33	-0.230117797852	 	3.95378112793
12.335	-0.29443359375	 	3.94889831543
12.34	-0.3017578125	 	3.94523620605
12.345	-0.262847900391	 	3.94401550293
12.35	-0.225234985352	 	3.94157409668
12.355	-0.227676391602	 	3.94035339355
12.36	-0.249496459961	 	3.93798828125
12.365	-0.239807128906	 	3.93798828125
12.37	-0.222793579102	 	3.93676757813
12.375	-0.221572875977	 	3.93676757813
12.38	-0.217910766602	 	3.93798828125
12.385	-0.3017578125	 	3.93798828125
12.39	-0.355163574219	 	3.94157409668
12.395	-0.28840637207	 	3.94035339355
12.4	-0.0953063964844	 	3.93676757813
12.405	0.442718505859	 	3.93432617188
12.41	1.05604553223	 	3.93310546875
12.415	1.30377197266	 	3.93188476563
12.42	1.0329284668	 	3.93432617188
12.425	0.577529907227	 	3.93676757813
12.43	0.0723114013672	 	3.94035339355
12.435	-0.162063598633	 	3.94401550293
12.44	-0.237365722656	 	3.94157409668
12.445	-0.238586425781	 	3.94157409668
12.45	-0.256820678711	 	3.94035339355
12.455	-0.256820678711	 	3.94035339355
12.46	-0.216690063477	 	3.93913269043
12.465	-0.213104248047	 	3.93913269043
12.47	-0.222793579102	 	3.93676757813
12.475	-0.187545776367	 	3.93432617188
12.48	-0.142608642578	 	3.93310546875
12.485	-0.111099243164	 	3.93188476563
12.49	-0.109878540039	 	3.92944335938
12.495	-0.0988922119141	 	3.9306640625
12.5	0.00311279296875	 	3.9306640625
12.505	0.0492706298828	 	3.92456054688
12.51	-0.0139007568359	 	3.92097473145
12.515	-0.0454864501953	 	3.91609191895
12.52	-0.0430450439453	 	3.90754699707
12.525	-0.0709686279297	 	3.89541625977
12.53	-0.0479278564453	 	3.88816833496
12.535	-0.06005859375	 	3.88450622559
12.54	0.0771942138672	 	3.87481689453
12.545	0.0771942138672	 	3.87115478516
12.55	0.0674285888672	 	3.86749267578
12.555	0.119689941406	 	3.86871337891
12.56	0.18522644043	 	3.86749267578
12.565	0.248397827148	 	3.86627197266
12.57	0.275100708008	 	3.86383056641
12.575	0.126937866211	 	3.86749267578
12.58	0.134262084961	 	3.86993408203
12.585	0.221694946289	 	3.86871337891
12.59	0.299438476563	 	3.86749267578
12.595	0.278762817383	 	3.86749267578
12.6	0.239929199219	 	3.87237548828
12.605	0.220474243164	 	3.87115478516
12.61	0.146392822266	 	3.87237548828
12.615	0.0893249511719	 	3.87237548828
12.62	0.0189056396484	 	3.87481689453
12.625	-0.0345764160156	 	3.87481689453
12.63	0.0176849365234	 	3.87596130371
12.635	0.00791931152344	 	3.87718200684
12.64	-0.0830993652344	 	3.88206481934
12.645	-0.128036499023	 	3.88084411621
12.65	-0.0976715087891	 	3.88206481934
12.655	-0.0746307373047	 	3.88328552246
12.66	-0.103775024414	 	3.88328552246
12.665	-0.147491455078	 	3.88328552246
12.67	-0.132919311523	 	3.88206481934
12.675	-0.0965270996094	 	3.87962341309
12.68	-0.0333557128906	 	3.87962341309
12.685	0.0261535644531	 	3.87840270996
12.69	0.145172119141	 	3.87481689453
12.695	0.0917663574219	 	3.87481689453
12.7	0.00433349609375	 	3.87481689453
12.705	0.0540771484375	 	3.87359619141
12.71	0.0626220703125	 	3.87359619141
12.715	-0.0782928466797	 	3.87840270996
12.72	-0.175415039063	 	3.87237548828
12.725	-0.132919311523	 	3.86749267578
12.73	-0.0187835693359	 	3.86383056641
12.735	-0.0139007568359	 	3.86383056641
12.74	-0.0515899658203	 	3.86383056641
12.745	-0.142608642578	 	3.86383056641
12.75	-0.219131469727	 	3.86383056641
12.755	-0.237365722656	 	3.86505126953
12.76	-0.238586425781	 	3.86505126953
12.765	-0.226455688477	 	3.86993408203
12.77	-0.225234985352	 	3.87115478516
12.775	-0.215545654297	 	3.86749267578
12.78	-0.248275756836	 	3.86993408203
12.785	-0.238586425781	 	3.87596130371
12.79	-0.205780029297	 	3.87718200684
12.795	-0.216690063477	 	3.87840270996
12.8	-0.215545654297	 	3.87962341309
12.805	-0.217910766602	 	3.87962341309
12.81	-0.185180664063	 	3.87962341309
12.815	-0.233703613281	 	3.88084411621
12.82	-0.290771484375	 	3.88328552246
12.825	-0.261627197266	 	3.88206481934
12.83	-0.122009277344	 	3.88206481934
12.835	0.236267089844	 	3.87962341309
12.84	0.760940551758	 	3.87840270996
12.845	1.2102355957	 	3.87237548828
12.85	1.20420837402	 	3.87115478516
12.855	0.758499145508	 	3.87237548828
12.86	0.180419921875	 	3.87596130371
12.865	-0.151153564453	 	3.87840270996
12.87	-0.282302856445	 	3.87840270996
12.875	-0.29443359375	 	3.87718200684
12.88	-0.256820678711	 	3.87481689453
12.885	-0.237365722656	 	3.87237548828
12.89	-0.267730712891	 	3.87237548828
12.895	-0.340591430664	 	3.87237548828
12.9	-0.27619934082	 	3.87237548828
12.905	-0.249496459961	 	3.86871337891
12.91	-0.279861450195	 	3.87237548828
12.915	-0.264068603516	 	3.87115478516
12.92	-0.213104248047	 	3.87115478516
12.925	-0.156036376953	 	3.86871337891
12.93	-0.126815795898	 	3.86383056641
12.935	-0.158401489258	 	3.86260986328
12.94	-0.169387817383	 	3.85780334473
12.945	-0.130477905273	 	3.85894775391
12.95	-0.123229980469	 	3.85780334473
12.955	-0.0928649902344	 	3.85536193848
12.96	-0.0296936035156	 	3.85536193848
12.965	0.0212707519531	 	3.8565826416
12.97	0.0929870605469	 	3.85780334473
12.975	0.0626220703125	 	3.86138916016
12.98	0.0298156738281	 	3.86260986328
12.985	0.139144897461	 	3.86383056641
12.99	0.233825683594	 	3.86383056641
12.995	0.295776367188	 	3.86138916016
13	0.358947753906	 	3.86749267578
13.005	0.329803466797	 	3.87481689453
13.01	0.333389282227	 	3.87718200684
13.015	0.362533569336	 	3.87718200684
13.02	0.333389282227	 	3.88328552246
13.025	0.331024169922	 	3.87840270996
13.03	0.296997070313	 	3.87718200684
13.035	0.18408203125	 	3.87840270996
13.04	0.0674285888672	 	3.87840270996
13.045	0.00067138671875	 	3.88084411621
13.05	0.0868835449219	 	3.87962341309
13.055	0.0140228271484	 	3.87840270996
13.06	-0.00787353515625	 	3.87840270996
13.065	-0.00421142578125	 	3.87840270996
13.07	-0.0163421630859	 	3.87840270996
13.075	-0.052734375	 	3.87962341309
13.08	-0.0381622314453	 	3.87718200684
13.085	-0.126815795898	 	3.87481689453
13.09	-0.0916442871094	 	3.87718200684
13.095	-0.063720703125	 	3.87718200684
13.1	-0.140243530273	 	3.87481689453
13.105	-0.126815795898	 	3.87359619141
13.11	-0.0515899658203	 	3.86993408203
13.115	0.00433349609375	 	3.86505126953
13.12	-0.0200042724609	 	3.85894775391
13.125	-0.066162109375	 	3.86138916016
13.13	-0.0892028808594	 	3.86138916016
13.135	-0.0904235839844	 	3.86016845703
13.14	-0.0782928466797	 	3.85894775391
13.145	-0.0381622314453	 	3.85894775391
13.15	-0.0151214599609	 	3.85894775391
13.155	0.00311279296875	 	3.85894775391
13.16	0.0285949707031	 	3.85780334473
13.165	0.0504913330078	 	3.85780334473
13.17	0.00311279296875	 	3.85894775391
13.175	-0.00177001953125	 	3.86016845703
13.18	-0.0418243408203	 	3.86016845703
13.185	-0.136581420898	 	3.85894775391
13.19	-0.162063598633	 	3.86260986328
13.195	-0.220352172852	 	3.87237548828
13.2	-0.230117797852	 	3.87596130371
13.205	-0.193649291992	 	3.87596130371
13.21	-0.204559326172	 	3.87718200684
13.215	-0.199752807617	 	3.87596130371
13.22	-0.174194335938	 	3.87481689453
13.225	-0.217910766602	 	3.87359619141
13.23	-0.194869995117	 	3.87237548828
13.235	-0.141464233398	 	3.87115478516
13.24	-0.174194335938	 	3.86627197266
13.245	-0.256820678711	 	3.86505126953
13.25	-0.219131469727	 	3.86260986328
13.255	-0.0126800537109	 	3.86016845703
13.26	0.391677856445	 	3.85780334473
13.265	0.768188476563	 	3.85894775391
13.27	1.24304199219	 	3.85414123535
13.275	1.26249694824	 	3.85414123535
13.28	0.861724853516	 	3.85536193848
13.285	0.18408203125	 	3.85780334473
13.29	-0.234924316406	 	3.86016845703
13.295	-0.383087158203	 	3.86383056641
13.3	-0.375839233398	 	3.86383056641
13.305	-0.347915649414	 	3.86505126953
13.31	-0.339370727539	 	3.86260986328
13.315	-0.311447143555	 	3.86016845703
13.32	-0.287185668945	 	3.86383056641
13.325	-0.262847900391	 	3.86383056641
13.33	-0.255599975586	 	3.86260986328
13.335	-0.225234985352	 	3.86138916016
13.34	-0.171752929688	 	3.86260986328
13.345	-0.119567871094	 	3.86138916016
13.35	-0.0685272216797	 	3.85894775391
13.355	-0.0685272216797	 	3.84925842285
13.36	-0.0685272216797	 	3.84925842285
13.365	-0.0418243408203	 	3.84925842285
13.37	-0.0709686279297	 	3.8468170166
13.375	-0.0843200683594	 	3.8468170166
13.38	-0.0746307373047	 	3.84559631348
13.385	-0.0879821777344	 	3.85047912598
13.39	-0.0418243408203	 	3.85536193848
13.395	-0.0807342529297	 	3.85536193848
13.4	-0.058837890625	 	3.85536193848
13.405	0.108779907227	 	3.85536193848
13.41	0.145172119141	 	3.85894775391
13.415	0.203460693359	 	3.85780334473
13.42	0.19010925293	 	3.85780334473
13.425	0.15852355957	 	3.86260986328
13.43	0.201019287109	 	3.86505126953
13.435	0.177978515625	 	3.86627197266
13.44	0.220474243164	 	3.86260986328
13.445	0.204681396484	 	3.86260986328
13.45	0.236267089844	 	3.86383056641
13.455	0.137924194336	 	3.86871337891
13.46	0.0310363769531	 	3.87237548828
13.465	-0.0102386474609	 	3.87359619141
13.47	-0.0843200683594	 	3.87481689453
13.475	-0.160842895508	 	3.87840270996
13.48	-0.154815673828	 	3.88084411621
13.485	-0.124450683594	 	3.88328552246
13.49	-0.170608520508	 	3.88572692871
13.495	-0.204559326172	 	3.88938903809
13.5	-0.204559326172	 	3.89060974121
13.505	-0.185180664063	 	3.89541625977
13.51	-0.159622192383	 	3.89663696289
13.515	-0.135360717773	 	3.89785766602
13.52	-0.125671386719	 	3.89419555664
13.525	-0.166946411133	 	3.88938903809
13.53	-0.194869995117	 	3.89419555664
13.535	-0.169387817383	 	3.89907836914
13.54	-0.158401489258	 	3.90151977539
13.545	-0.168167114258	 	3.90151977539
13.55	-0.168167114258	 	3.90518188477
13.555	-0.147491455078	 	3.90518188477
13.56	-0.131698608398	 	3.90518188477
13.565	-0.112243652344	 	3.90754699707
13.57	-0.0795135498047	 	3.90998840332
13.575	-0.0576171875	 	3.91242980957
13.58	-0.0685272216797	 	3.91242980957
13.585	-0.111099243164	 	3.9136505127
13.59	-0.180297851563	 	3.91609191895
13.595	-0.243469238281	 	3.91731262207
13.6	-0.273834228516	 	3.92097473145
13.605	-0.250717163086	 	3.92456054688
13.61	-0.277420043945	 	3.92578125
13.615	-0.298095703125	 	3.92333984375
13.62	-0.295654296875	 	3.9306640625
13.625	-0.287185668945	 	3.93310546875
13.63	-0.251937866211	 	3.935546875
13.635	-0.238586425781	 	3.93676757813
13.64	-0.282302856445	 	3.94035339355
13.645	-0.3017578125	 	3.94157409668
13.65	-0.31266784668	 	3.94035339355
13.655	-0.323577880859	 	3.9427947998
13.66	-0.393997192383	 	3.94523620605
13.665	-0.362487792969	 	3.94523620605
13.67	-0.326019287109	 	3.94645690918
13.675	-0.215545654297	 	3.9476776123
13.68	0.0370635986328	 	3.94645690918
13.685	0.462173461914	 	3.94645690918
13.69	0.679534912109	 	3.9427947998
13.695	0.445159912109	 	3.94645690918
13.7	-0.00901794433594	 	3.95133972168
13.705	-0.289627075195	 	3.95614624023
13.71	-0.438934326172	 	3.95614624023
13.715	-0.481506347656	 	3.95736694336
13.72	-0.458389282227	 	3.95980834961
13.725	-0.418334960938	 	3.96102905273
13.73	-0.381866455078	 	3.96102905273
13.735	-0.350280761719	 	3.96224975586
13.74	-0.30778503418	 	3.96224975586
13.745	-0.277420043945	 	3.96224975586
13.75	-0.273834228516	 	3.96591186523
13.755	-0.268951416016	 	3.96469116211
13.76	-0.258041381836	 	3.96713256836
13.765	-0.247055053711	 	3.97071838379
13.77	-0.207000732422	 	3.97193908691
13.775	-0.186325073242	 	3.97315979004
13.78	-0.189987182617	 	3.97682189941
13.785	-0.207000732422	 	3.97926330566
13.79	-0.219131469727	 	3.98536682129
13.795	-0.207000732422	 	3.98895263672
13.8	-0.198532104492	 	3.99383544922
13.805	-0.175415039063	 	3.99871826172
13.81	-0.170608520508	 	4.00718688965
13.815	-0.153594970703	 	4.01329040527
13.82	-0.135360717773	 	4.01931762695
13.825	-0.112243652344	 	4.0217590332
13.83	-0.100112915039	 	4.0266418457
13.835	-0.0758514404297	 	4.02908325195
13.84	-0.058837890625	 	4.03396606445
13.845	-0.0370178222656	 	4.03755187988
13.85	0.0395050048828	 	4.03999328613
13.855	0.0189056396484	 	4.04365539551
13.86	-0.0235900878906	 	4.04853820801
13.865	-0.06005859375	 	4.04975891113
13.87	-0.0904235839844	 	4.05212402344
13.875	-0.118347167969	 	4.05822753906
13.88	-0.139022827148	 	4.05944824219
13.885	-0.162063598633	 	4.06311035156
13.89	-0.181518554688	 	4.06311035156
13.895	-0.203338623047	 	4.06669616699
13.9	-0.245834350586	 	4.07035827637
13.905	-0.270172119141	 	4.07279968262
13.91	-0.27619934082	 	4.07524108887
13.915	-0.256820678711	 	4.07646179199
13.92	-0.228897094727	 	4.07890319824
13.925	-0.224014282227	 	4.08134460449
13.93	-0.219131469727	 	4.08134460449
13.935	-0.238586425781	 	4.08493041992
13.94	-0.221572875977	 	4.08737182617
13.945	-0.185180664063	 	4.0885925293
13.95	-0.134140014648	 	4.08981323242
13.955	-0.128036499023	 	4.09225463867
13.96	-0.170608520508	 	4.09591674805
13.965	-0.189987182617	 	4.09828186035
13.97	-0.193649291992	 	4.1007232666
13.975	-0.213104248047	 	4.10316467285
13.98	-0.186325073242	 	4.1056060791
13.985	-0.179077148438	 	4.10804748535
13.99	-0.159622192383	 	4.10804748535
13.995	-0.181518554688	 	4.1104888916
14	-0.238586425781	 	4.11407470703
14.005	-0.289627075195	 	4.11651611328
14.01	-0.330902099609	 	4.11529541016
14.015	-0.361267089844	 	4.12384033203
14.02	-0.401321411133	 	4.12506103516
14.025	-0.428024291992	 	4.12628173828
14.03	-0.419555664063	 	4.12628173828
14.035	-0.398880004883	 	4.13108825684
14.04	-0.380645751953	 	4.13230895996
14.045	-0.349060058594	 	4.13352966309
14.05	-0.343032836914	 	4.13475036621
14.055	-0.372177124023	 	4.13475036621
14.06	-0.356384277344	 	4.13597106934
14.065	-0.349060058594	 	4.13475036621
14.07	-0.391632080078	 	4.13597106934
14.075	-0.469299316406	 	4.13597106934
14.08	-0.504547119141	 	4.13963317871
14.085	-0.424362182617	 	4.13963317871
14.09	-0.27619934082	 	4.13475036621
14.095	-0.0333557128906	 	4.13719177246
14.1	0.446380615234	 	4.13475036621
14.105	0.65771484375	 	4.13108825684
14.11	0.494979858398	 	4.13352966309
14.115	0.203460693359	 	4.13719177246
14.12	-0.117126464844	 	4.13963317871
14.125	-0.309005737305	 	4.14207458496
14.13	-0.393997192383	 	4.14207458496
14.135	-0.378280639648	 	4.14329528809
14.14	-0.352722167969	 	4.14207458496
14.145	-0.355163574219	 	4.13963317871
14.15	-0.340591430664	 	4.14207458496
14.155	-0.340591430664	 	4.14573669434
14.16	-0.332122802734	 	4.14573669434
14.165	-0.295654296875	 	4.14688110352
14.17	-0.253158569336	 	4.15054321289
14.175	-0.226455688477	 	4.15298461914
14.18	-0.203338623047	 	4.15664672852
14.185	-0.191207885742	 	4.15908813477
14.19	-0.166946411133	 	4.1626739502
14.195	-0.102554321289	 	4.16511535645
14.2	-0.0345764160156	 	4.17488098145
14.205	-0.0284729003906	 	4.17610168457
14.21	-0.0224456787109	 	4.1796875
14.215	-0.0709686279297	 	4.18212890625
14.22	-0.00054931640625	 	4.18334960938
14.225	0.0431671142578	 	4.1845703125
14.23	0.0589599609375	 	4.1845703125
14.235	0.0565185546875	 	4.18334960938
14.24	0.117248535156	 	4.1796875
14.245	0.153717041016	 	4.17366027832
14.25	0.162185668945	 	4.16633605957
14.255	0.152496337891	 	4.15786743164
14.26	0.180419921875	 	4.14932250977
14.265	0.207122802734	 	4.14451599121
14.27	0.283645629883	 	4.13597106934
14.275	0.315231323242	 	4.13108825684
14.28	0.286087036133	 	4.12750244141
14.285	0.225357055664	 	4.12628173828
14.29	0.177978515625	 	4.12506103516
14.295	0.123352050781	 	4.12261962891
14.3	0.0844421386719	 	4.11895751953
14.305	0.113586425781	 	4.11895751953
14.31	0.147613525391	 	4.11773681641
14.315	0.126937866211	 	4.11529541016
14.32	0.113586425781	 	4.11170959473
14.325	0.0917663574219	 	4.10926818848
14.33	0.0807800292969	 	4.10438537598
14.335	0.110000610352	 	4.09828186035
14.34	0.139144897461	 	4.09225463867
14.345	0.147613525391	 	4.08737182617
14.35	0.148834228516	 	4.08012390137
14.355	0.1767578125	 	4.07646179199
14.36	0.242370605469	 	4.06791687012
14.365	0.267852783203	 	4.06188964844
14.37	0.212005615234	 	4.06066894531
14.375	0.186447143555	 	4.05944824219
14.38	0.145172119141	 	4.05822753906
14.385	0.133041381836	 	4.05212402344
14.39	0.119689941406	 	4.04975891113
14.395	0.151275634766	 	4.04853820801
14.4	0.252059936523	 	4.04731750488
14.405	0.295776367188	 	4.04609680176
14.41	0.298217773438	 	4.04487609863
14.415	0.227798461914	 	4.04243469238
14.42	0.126937866211	 	4.03999328613
14.425	0.0201263427734	 	4.03755187988
14.43	-0.0357971191406	 	4.03633117676
14.435	-0.0940856933594	 	4.03274536133
14.44	-0.131698608398	 	4.02786254883
14.445	-0.148712158203	 	4.02420043945
14.45	-0.171752929688	 	4.02297973633
14.455	-0.194869995117	 	4.01931762695
14.46	-0.164505004883	 	4.0145111084
14.465	-0.151153564453	 	4.0096282959
14.47	-0.145050048828	 	4.00596618652
14.475	-0.168167114258	 	4.00352478027
14.48	-0.176635742188	 	4.00238037109
14.485	-0.239807128906	 	3.99993896484
14.49	-0.329681396484	 	3.99871826172
14.495	-0.353942871094	 	3.99993896484
14.5	-0.230117797852	 	3.99993896484
14.505	-0.00421142578125	 	3.99505615234
14.51	0.407470703125	 	3.99139404297
14.515	0.90788269043	 	3.98651123047
14.52	0.87629699707	 	3.98895263672
14.525	0.63948059082	 	3.99017333984
14.53	0.314010620117	 	3.99383544922
14.535	0.0431671142578	 	3.99139404297
14.54	-0.0843200683594	 	3.99505615234
14.545	-0.0867614746094	 	3.99749755859
14.55	-0.0819549560547	 	3.99749755859
14.555	-0.0709686279297	 	3.99871826172
14.56	-0.0685272216797	 	3.99749755859
14.565	-0.0770721435547	 	3.99749755859
14.57	-0.0807342529297	 	3.99749755859
14.575	-0.0953063964844	 	3.99993896484
14.58	-0.0721893310547	 	3.99627685547
14.585	-0.0430450439453	 	3.99749755859
14.59	-0.00543212890625	 	3.99627685547
14.595	0.00555419921875	 	3.99505615234
14.6	0.0273742675781	 	3.99139404297
14.605	0.0237121582031	 	3.99017333984
14.61	-0.0200042724609	 	3.98773193359
14.615	-0.061279296875	 	3.98536682129
14.62	-0.0345764160156	 	3.98292541504
14.625	0.00311279296875	 	3.97804260254
14.63	0.0650634765625	 	3.97315979004
14.635	0.0456085205078	 	3.97071838379
14.64	0.0516357421875	 	3.96713256836
14.645	0.0298156738281	 	3.96102905273
14.65	0.0504913330078	 	3.95736694336
14.655	0.151275634766	 	3.95133972168
14.66	0.231384277344	 	3.9476776123
14.665	0.213226318359	 	3.94889831543
14.67	0.248397827148	 	3.94889831543
14.675	0.248397827148	 	3.95011901855
14.68	0.235046386719	 	3.95011901855
14.685	0.222915649414	 	3.95011901855
14.69	0.243515014648	 	3.95011901855
14.695	0.247177124023	 	3.95133972168
14.7	0.247177124023	 	3.95011901855
14.705	0.170654296875	 	3.95133972168
14.71	0.0771942138672	 	3.95492553711
14.715	0.0346984863281	 	3.95614624023
14.72	0.0103607177734	 	3.95858764648
14.725	-0.0685272216797	 	3.95980834961
14.73	-0.109878540039	 	3.96102905273
14.735	-0.125671386719	 	3.95980834961
14.74	-0.142608642578	 	3.96347045898
14.745	-0.134140014648	 	3.96347045898
14.75	-0.148712158203	 	3.96469116211
14.755	-0.156036376953	 	3.96713256836
14.76	-0.131698608398	 	3.96591186523
14.765	-0.0904235839844	 	3.96713256836
14.77	-0.0807342529297	 	3.96713256836
14.775	-0.0916442871094	 	3.96713256836
14.78	-0.058837890625	 	3.96835327148
14.785	-0.0296936035156	 	3.96713256836
14.79	-0.0321350097656	 	3.96591186523
14.795	-0.052734375	 	3.96713256836
14.8	-0.0734100341797	 	3.96713256836
14.805	-0.0625	 	3.96713256836
14.81	-0.0151214599609	 	3.96591186523
14.815	-0.0321350097656	 	3.96835327148
14.82	-0.0381622314453	 	3.96713256836
14.825	-0.0721893310547	 	3.96713256836
14.83	-0.106216430664	 	3.96469116211
14.835	-0.139022827148	 	3.96469116211
14.84	-0.177856445313	 	3.96224975586
14.845	-0.199752807617	 	3.96224975586
14.85	-0.204559326172	 	3.95858764648
14.855	-0.193649291992	 	3.95614624023
14.86	-0.179077148438	 	3.95378112793
14.865	-0.181518554688	 	3.95011901855
14.87	-0.135360717773	 	3.94401550293
14.875	-0.130477905273	 	3.94523620605
14.88	-0.130477905273	 	3.9427947998
14.885	-0.181518554688	 	3.94401550293
14.89	-0.298095703125	 	3.94401550293
14.895	-0.349060058594	 	3.94523620605
14.9	-0.30534362793	 	3.9476776123
14.905	-0.160842895508	 	3.9476776123
14.91	0.159744262695	 	3.94645690918
14.915	0.705017089844	 	3.94645690918
14.92	0.841049194336	 	3.94523620605
14.925	0.63215637207	 	3.94645690918
14.93	0.290893554688	 	3.95011901855
14.935	-0.0296936035156	 	3.95492553711
14.94	-0.164505004883	 	3.95736694336
14.945	-0.203338623047	 	3.95858764648
14.95	-0.205780029297	 	3.95980834961
14.955	-0.222793579102	 	3.96469116211
14.96	-0.222793579102	 	3.96591186523
14.965	-0.217910766602	 	3.96835327148
14.97	-0.204559326172	 	3.96713256836
14.975	-0.181518554688	 	3.96835327148
14.98	-0.137802124023	 	3.96957397461
14.985	-0.126815795898	 	3.97071838379
14.99	-0.0916442871094	 	3.96591186523
14.995	-0.0843200683594	 	3.96591186523
15	-0.0673828125	 	3.96469116211
15.005	-0.0454864501953	 	3.96224975586
15.01	-0.0248107910156	 	3.96102905273
15.015	0.0346984863281	 	3.95980834961
15.02	0.0115814208984	 	3.95980834961
15.025	-0.0272521972656	 	3.95736694336
15.03	-0.0212249755859	 	3.95614624023
15.035	-0.00787353515625	 	3.95736694336
15.04	0.00914001464844	 	3.95614624023
15.045	0.0528564453125	 	3.95614624023
15.05	0.142730712891	 	3.95133972168
15.055	0.177978515625	 	3.95011901855
15.06	0.224136352539	 	3.95011901855
15.065	0.284866333008	 	3.9476776123
15.07	0.316452026367	 	3.94645690918
15.075	0.372299194336	 	3.9476776123
15.08	0.364974975586	 	3.94523620605
15.085	0.339492797852	 	3.94889831543
15.09	0.323699951172	 	3.95133972168
15.095	0.316452026367	 	3.95011901855
15.1	0.311569213867	 	3.9525604248
15.105	0.292114257813	 	3.9525604248
15.11	0.235046386719	 	3.95614624023
15.115	0.173095703125	 	3.95736694336
15.12	0.151275634766	 	3.95980834961
15.125	0.0942077636719	 	3.96347045898
15.13	0.0395050048828	 	3.96469116211
15.135	-0.00421142578125	 	3.96957397461
15.14	-0.00901794433594	 	3.96957397461
15.145	-0.0187835693359	 	3.97071838379
15.15	-0.00901794433594	 	3.97193908691
15.155	0.00914001464844	 	3.97560119629
15.16	0.0334777832031	 	3.97926330566
15.165	0.0201263427734	 	3.98170471191
15.17	-0.0151214599609	 	3.98414611816
15.175	-0.0296936035156	 	3.98651123047
15.18	-0.0260314941406	 	3.98895263672
15.185	0.00669860839844	 	3.99017333984
15.19	0.0201263427734	 	3.99627685547
15.195	0.0164642333984	 	3.99871826172
15.2	0.0359191894531	 	4.00352478027
15.205	0.0492706298828	 	4.00718688965
15.21	0.0249328613281	 	4.01329040527
15.215	0.0103607177734	 	4.01931762695
15.22	-0.056396484375	 	4.02542114258
15.225	-0.126815795898	 	4.03030395508
15.23	-0.171752929688	 	4.03396606445
15.235	-0.185180664063	 	4.03877258301
15.24	-0.197311401367	 	4.04487609863
15.245	-0.209442138672	 	4.04609680176
15.25	-0.204559326172	 	4.05822753906
15.255	-0.198532104492	 	4.06066894531
15.26	-0.203338623047	 	4.06188964844
15.265	-0.194869995117	 	4.06433105469
15.27	-0.209442138672	 	4.06913757324
15.275	-0.221572875977	 	4.07157897949
15.28	-0.243469238281	 	4.07524108887
15.285	-0.321136474609	 	4.07646179199
15.29	-0.400100708008	 	4.08012390137
15.295	-0.369735717773	 	4.08134460449
15.3	-0.249496459961	 	4.08615112305
15.305	0.0359191894531	 	4.08737182617
15.31	0.585998535156	 	4.08493041992
15.315	0.932144165039	 	4.08248901367
15.32	0.797332763672	 	4.08737182617
15.325	0.486434936523	 	4.09225463867
15.33	0.0626220703125	 	4.09591674805
15.335	-0.158401489258	 	4.1007232666
15.34	-0.199752807617	 	4.10438537598
15.345	-0.204559326172	 	4.10682678223
15.35	-0.219131469727	 	4.11170959473
15.355	-0.216690063477	 	4.11407470703
15.36	-0.176635742188	 	4.11407470703
15.365	-0.170608520508	 	4.11529541016
15.37	-0.158401489258	 	4.12017822266
15.375	-0.128036499023	 	4.12139892578
15.38	-0.106216430664	 	4.12628173828
15.385	-0.0685272216797	 	4.12628173828
15.39	-0.0224456787109	 	4.12994384766
15.395	0.0285949707031	 	4.12994384766
15.4	0.0601806640625	 	4.13108825684
15.405	0.0626220703125	 	4.13352966309
15.41	0.0638427734375	 	4.13230895996
15.415	0.0929870605469	 	4.13475036621
15.42	0.119689941406	 	4.13719177246
15.425	0.114807128906	 	4.14085388184
15.43	0.112365722656	 	4.14329528809
15.435	0.15608215332	 	4.14573669434
15.44	0.188888549805	 	4.14573669434
15.445	0.180419921875	 	4.14932250977
15.45	0.248397827148	 	4.15298461914
15.455	0.304244995117	 	4.15542602539
15.46	0.346817016602	 	4.15542602539
15.465	0.364974975586	 	4.15786743164
15.47	0.366195678711	 	4.16152954102
15.475	0.368637084961	 	4.1626739502
15.48	0.345596313477	 	4.1675567627
15.485	0.357727050781	 	4.16999816895
15.49	0.356506347656	 	4.17121887207
15.495	0.298217773438	 	4.17488098145
15.5	0.259307861328	 	4.17610168457
15.505	0.231384277344	 	4.17846679688
15.51	0.131820678711	 	4.1796875
15.515	0.0115814208984	 	4.18212890625
15.52	0.0759735107422	 	4.18334960938
15.525	0.130599975586	 	4.18701171875
15.53	0.175537109375	 	4.18823242188
15.535	0.191329956055	 	4.189453125
15.54	0.143951416016	 	4.19067382813
15.545	0.131820678711	 	4.19311523438
15.55	0.1767578125	 	4.19425964355
15.555	0.19255065918	 	4.19425964355
15.56	0.182861328125	 	4.1967010498
15.565	0.216812133789	 	4.1967010498
15.57	0.238708496094	 	4.19792175293
15.575	0.262969970703	 	4.19914245605
15.58	0.327362060547	 	4.20036315918
15.585	0.331024169922	 	4.19914245605
15.59	0.305465698242	 	4.20402526855
15.595	0.282424926758	 	4.20524597168
15.6	0.258163452148	 	4.20524597168
15.605	0.212005615234	 	4.20890808105
15.61	0.175537109375	 	4.20890808105
15.615	0.0856628417969	 	4.21249389648
15.62	-0.0212249755859	 	4.21737670898
15.625	-0.0928649902344	 	4.21859741211
15.63	-0.130477905273	 	4.22103881836
15.635	-0.146270751953	 	4.22225952148
15.64	-0.185180664063	 	4.22584533691
15.645	-0.204559326172	 	4.22584533691
15.65	-0.205780029297	 	4.22348022461
15.655	-0.193649291992	 	4.22584533691
15.66	-0.210662841797	 	4.22706604004
15.665	-0.202117919922	 	4.22706604004
15.67	-0.185180664063	 	4.22828674316
15.675	-0.227676391602	 	4.23194885254
15.68	-0.31266784668	 	4.23439025879
15.685	-0.355163574219	 	4.23439025879
15.69	-0.2919921875	 	4.23805236816
15.695	-0.0965270996094	 	4.23561096191
15.7	0.255722045898	 	4.23561096191
15.705	0.713562011719	 	4.23194885254
15.71	1.00744628906	 	4.23439025879
15.715	0.89453125	 	4.23561096191
15.72	0.578750610352	 	4.24285888672
15.725	0.193771362305	 	4.24896240234
15.73	-0.0357971191406	 	4.25018310547
15.735	-0.119567871094	 	4.25262451172
15.74	-0.154815673828	 	4.25384521484
15.745	-0.158401489258	 	4.25750732422
15.75	-0.197311401367	 	4.26231384277
15.755	-0.181518554688	 	4.26109313965
15.76	-0.160842895508	 	4.26109313965
15.765	-0.160842895508	 	4.26475524902
15.77	-0.145050048828	 	4.26597595215
15.775	-0.149932861328	 	4.26597595215
15.78	-0.134140014648	 	4.26719665527
15.785	-0.137802124023	 	4.26719665527
15.79	-0.142608642578	 	4.26963806152
15.795	-0.0904235839844	 	4.2684173584
15.8	-0.052734375	 	4.26963806152
15.805	-0.0139007568359	 	4.27085876465
15.81	0.0140228271484	 	4.26963806152
15.815	0.0224914550781	 	4.27085876465
15.82	0.0346984863281	 	4.27207946777
15.825	0.0638427734375	 	4.27444458008
15.83	0.0674285888672	 	4.2756652832
15.835	0.0468292236328	 	4.27688598633
15.84	0.0589599609375	 	4.27932739258
15.845	0.0650634765625	 	4.2805480957
15.85	0.0771942138672	 	4.27932739258
15.855	0.112365722656	 	4.2805480957
15.86	0.16096496582	 	4.28298950195
15.865	0.170654296875	 	4.28298950195
15.87	0.171875	 	4.2854309082
15.875	0.220474243164	 	4.28298950195
15.88	0.266632080078	 	4.28298950195
15.885	0.265411376953	 	4.28421020508
15.89	0.269073486328	 	4.2854309082
15.895	0.248397827148	 	4.2854309082
15.9	0.208343505859	 	4.28787231445
15.905	0.219253540039	 	4.28909301758
15.91	0.231384277344	 	4.28665161133
15.915	0.199798583984	 	4.28787231445
15.92	0.140289306641	 	4.29145812988
15.925	0.119689941406	 	4.29145812988
15.93	0.146392822266	 	4.29267883301
15.935	0.191329956055	 	4.29267883301
15.94	0.238708496094	 	4.29267883301
15.945	0.242370605469	 	4.29145812988
15.95	0.258163452148	 	4.29512023926
15.955	0.275100708008	 	4.29512023926
